Deltoid,Bicep,Time
0.0,-12.0,0.0
-4.0,-20.0,0.001
-3.0,-17.0,0.002
8.0,-11.0,0.003
18.0,-9.0,0.004
19.0,-8.0,0.005
15.0,-7.0,0.006
13.0,-7.0,0.007
12.0,-7.0,0.008
6.0,-6.0,0.009
-2.0,-2.0,0.01
-8.0,1.0,0.011
-10.0,3.0,0.012
-13.0,4.0,0.013
-14.0,4.0,0.014
-12.0,5.0,0.015
-10.0,7.0,0.016
-10.0,8.0,0.017
-15.0,7.0,0.018
-16.0,4.0,0.019
-12.0,-1.0,0.02
-7.0,-20.0,0.021
-2.0,-43.0,0.022
5.0,-50.0,0.023
16.0,-23.0,0.024
21.0,20.0,0.025
19.0,47.0,0.026
17.0,45.0,0.027
18.0,37.0,0.028
19.0,39.0,0.029
17.0,45.0,0.03
15.0,39.0,0.031
13.0,22.0,0.032
7.0,0.0,0.033
-2.0,-21.0,0.034
-10.0,-41.0,0.035
-10.0,-52.0,0.036
-5.0,-49.0,0.037
-4.0,-45.0,0.038
-5.0,-43.0,0.039
-5.0,-41.0,0.04
-4.0,-31.0,0.041
0.0,-12.0,0.042
7.0,5.0,0.043
18.0,17.0,0.044
20.0,23.0,0.045
13.0,29.0,0.046
-1.0,30.0,0.047
-6.0,23.0,0.048
-4.0,12.0,0.049
1.0,0.0,0.05
6.0,-3.0,0.051
10.0,-3.0,0.052
12.0,0.0,0.053
13.0,6.0,0.054
12.0,13.0,0.055
10.0,24.0,0.056
11.0,41.0,0.057
12.0,48.0,0.058
10.0,23.0,0.059
3.0,-44.0,0.06
-4.0,-119.0,0.061
-11.0,-131.0,0.062
-13.0,-68.0,0.063
-11.0,11.0,0.064
-13.0,45.0,0.065
-15.0,37.0,0.066
-15.0,31.0,0.067
-9.0,32.0,0.068
-1.0,27.0,0.069
2.0,17.0,0.07
3.0,28.0,0.071
2.0,55.0,0.072
4.0,59.0,0.073
4.0,22.0,0.074
5.0,-28.0,0.075
5.0,-49.0,0.076
8.0,-32.0,0.077
8.0,-4.0,0.078
5.0,9.0,0.079
1.0,6.0,0.08
-2.0,-1.0,0.081
0.0,1.0,0.082
11.0,0.0,0.083
21.0,-11.0,0.084
21.0,-26.0,0.085
12.0,-32.0,0.086
4.0,-26.0,0.087
4.0,-13.0,0.088
2.0,-2.0,0.089
-4.0,3.0,0.09
-8.0,4.0,0.091
-4.0,4.0,0.092
-3.0,-1.0,0.093
-7.0,-15.0,0.094
-12.0,-29.0,0.095
-12.0,-26.0,0.096
-6.0,0.0,0.097
-3.0,26.0,0.098
-1.0,33.0,0.099
1.0,16.0,0.1
1.0,-4.0,0.101
0.0,-9.0,0.102
3.0,-4.0,0.103
13.0,7.0,0.104
18.0,23.0,0.105
16.0,34.0,0.106
12.0,37.0,0.107
12.0,34.0,0.108
10.0,29.0,0.109
1.0,21.0,0.11
-2.0,10.0,0.111
2.0,-4.0,0.112
5.0,-12.0,0.113
0.0,-16.0,0.114
-5.0,-19.0,0.115
-2.0,-23.0,0.116
8.0,-22.0,0.117
9.0,-19.0,0.118
3.0,-12.0,0.119
-4.0,-5.0,0.12
-7.0,-2.0,0.121
-7.0,0.0,0.122
-1.0,3.0,0.123
8.0,6.0,0.124
14.0,7.0,0.125
14.0,3.0,0.126
12.0,-1.0,0.127
13.0,-3.0,0.128
11.0,-3.0,0.129
8.0,-1.0,0.13
5.0,2.0,0.131
2.0,4.0,0.132
-3.0,3.0,0.133
-14.0,-1.0,0.134
-20.0,-7.0,0.135
-15.0,-9.0,0.136
-5.0,-11.0,0.137
-1.0,-17.0,0.138
1.0,-19.0,0.139
4.0,-10.0,0.14
7.0,9.0,0.141
9.0,37.0,0.142
15.0,50.0,0.143
23.0,34.0,0.144
24.0,-5.0,0.145
17.0,-42.0,0.146
11.0,-57.0,0.147
14.0,-53.0,0.148
14.0,-49.0,0.149
2.0,-45.0,0.15
-11.0,-36.0,0.151
-12.0,-20.0,0.152
-4.0,-6.0,0.153
-4.0,7.0,0.154
-12.0,18.0,0.155
-15.0,27.0,0.156
-11.0,35.0,0.157
-7.0,50.0,0.158
-4.0,81.0,0.159
-4.0,107.0,0.16
-6.0,92.0,0.161
-5.0,31.0,0.162
4.0,-39.0,0.163
16.0,-70.0,0.164
16.0,-63.0,0.165
7.0,-59.0,0.166
1.0,-80.0,0.167
6.0,-90.0,0.168
8.0,-59.0,0.169
-2.0,-14.0,0.17
-10.0,-13.0,0.171
-9.0,-52.0,0.172
-2.0,-60.0,0.173
0.0,8.0,0.174
-3.0,100.0,0.175
-3.0,140.0,0.176
0.0,121.0,0.177
7.0,82.0,0.178
7.0,63.0,0.179
2.0,55.0,0.18
2.0,34.0,0.181
9.0,0.0,0.182
15.0,-38.0,0.183
20.0,-66.0,0.184
23.0,-70.0,0.185
22.0,-50.0,0.186
14.0,-20.0,0.187
1.0,-3.0,0.188
-5.0,-4.0,0.189
-6.0,-8.0,0.19
-4.0,-9.0,0.191
-4.0,-10.0,0.192
-9.0,-10.0,0.193
-13.0,-4.0,0.194
-12.0,6.0,0.195
-5.0,14.0,0.196
0.0,18.0,0.197
-1.0,34.0,0.198
-1.0,10.0,0.199
0.0,-35.0,0.2
0.0,-79.0,0.201
1.0,-86.0,0.202
7.0,-60.0,0.203
13.0,-28.0,0.204
15.0,-9.0,0.205
15.0,2.0,0.206
7.0,13.0,0.207
0.0,23.0,0.208
1.0,35.0,0.209
1.0,54.0,0.21
0.0,64.0,0.211
-2.0,46.0,0.212
-4.0,4.0,0.213
-8.0,-24.0,0.214
-13.0,-24.0,0.215
-15.0,-18.0,0.216
-7.0,-22.0,0.217
0.0,-34.0,0.218
5.0,-36.0,0.219
6.0,-27.0,0.22
9.0,-18.0,0.221
11.0,-4.0,0.222
13.0,10.0,0.223
18.0,17.0,0.224
20.0,9.0,0.225
15.0,-8.0,0.226
8.0,-21.0,0.227
5.0,-20.0,0.228
9.0,-3.0,0.229
8.0,21.0,0.23
5.0,33.0,0.231
1.0,24.0,0.232
-4.0,6.0,0.233
-13.0,-8.0,0.234
-20.0,-19.0,0.235
-21.0,-26.0,0.236
-19.0,-25.0,0.237
-18.0,-12.0,0.238
-14.0,4.0,0.239
-9.0,19.0,0.24
-3.0,28.0,0.241
3.0,28.0,0.242
9.0,11.0,0.243
16.0,-21.0,0.244
20.0,-47.0,0.245
22.0,-49.0,0.246
20.0,-23.0,0.247
18.0,17.0,0.248
15.0,59.0,0.249
11.0,81.0,0.25
8.0,72.0,0.251
5.0,46.0,0.252
5.0,25.0,0.253
6.0,13.0,0.254
7.0,-1.0,0.255
9.0,-9.0,0.256
14.0,-1.0,0.257
19.0,9.0,0.258
19.0,-2.0,0.259
15.0,-35.0,0.26
14.0,-61.0,0.261
16.0,-55.0,0.262
20.0,-35.0,0.263
18.0,-17.0,0.264
4.0,-6.0,0.265
-10.0,5.0,0.266
-20.0,7.0,0.267
-22.0,0.0,0.268
-29.0,-5.0,0.269
-38.0,1.0,0.27
-41.0,11.0,0.271
-36.0,10.0,0.272
-27.0,0.0,0.273
-21.0,-19.0,0.274
-14.0,-38.0,0.275
-6.0,-33.0,0.276
-1.0,13.0,0.277
0.0,87.0,0.278
3.0,139.0,0.279
8.0,133.0,0.28
11.0,80.0,0.281
7.0,35.0,0.282
8.0,14.0,0.283
14.0,-11.0,0.284
17.0,-59.0,0.285
9.0,-110.0,0.286
0.0,-127.0,0.287
5.0,-105.0,0.288
16.0,-81.0,0.289
17.0,-82.0,0.29
9.0,-87.0,0.291
6.0,-67.0,0.292
12.0,-24.0,0.293
13.0,3.0,0.294
7.0,7.0,0.295
6.0,4.0,0.296
12.0,16.0,0.297
14.0,34.0,0.298
12.0,42.0,0.299
9.0,32.0,0.3
9.0,14.0,0.301
12.0,0.0,0.302
15.0,-7.0,0.303
21.0,-8.0,0.304
24.0,-6.0,0.305
20.0,-3.0,0.306
12.0,5.0,0.307
5.0,19.0,0.308
1.0,30.0,0.309
-1.0,34.0,0.31
-2.0,28.0,0.311
-4.0,25.0,0.312
-9.0,27.0,0.313
-16.0,31.0,0.314
-15.0,30.0,0.315
-11.0,23.0,0.316
-9.0,15.0,0.317
-10.0,8.0,0.318
-9.0,9.0,0.319
-6.0,19.0,0.32
-4.0,23.0,0.321
-3.0,18.0,0.322
5.0,15.0,0.323
11.0,25.0,0.324
8.0,28.0,0.325
-1.0,-2.0,0.326
-2.0,-60.0,0.327
2.0,-95.0,0.328
3.0,-69.0,0.329
0.0,-11.0,0.33
1.0,27.0,0.331
6.0,33.0,0.332
5.0,32.0,0.333
2.0,34.0,0.334
4.0,30.0,0.335
8.0,21.0,0.336
8.0,14.0,0.337
2.0,-6.0,0.338
-3.0,-52.0,0.339
-8.0,-97.0,0.34
-9.0,-98.0,0.341
-7.0,-55.0,0.342
6.0,-18.0,0.343
16.0,-5.0,0.344
14.0,3.0,0.345
11.0,15.0,0.346
8.0,11.0,0.347
6.0,-4.0,0.348
6.0,-6.0,0.349
6.0,-5.0,0.35
3.0,-29.0,0.351
0.0,-61.0,0.352
-1.0,-41.0,0.353
-2.0,32.0,0.354
-2.0,92.0,0.355
-1.0,92.0,0.356
6.0,65.0,0.357
14.0,47.0,0.358
15.0,36.0,0.359
12.0,23.0,0.36
5.0,4.0,0.361
3.0,-8.0,0.362
11.0,0.0,0.363
19.0,12.0,0.364
15.0,38.0,0.365
-2.0,48.0,0.366
-18.0,6.0,0.367
-20.0,-32.0,0.368
-14.0,-58.0,0.369
-7.0,-69.0,0.37
-6.0,-31.0,0.371
-11.0,-7.0,0.372
-15.0,-23.0,0.373
-12.0,-31.0,0.374
-6.0,-16.0,0.375
-5.0,0.0,0.376
-4.0,14.0,0.377
-4.0,24.0,0.378
2.0,11.0,0.379
8.0,-1.0,0.38
10.0,-2.0,0.381
11.0,7.0,0.382
17.0,1.0,0.383
24.0,-25.0,0.384
24.0,-40.0,0.385
17.0,-28.0,0.386
11.0,-2.0,0.387
9.0,9.0,0.388
11.0,3.0,0.389
7.0,0.0,0.39
1.0,8.0,0.391
-4.0,20.0,0.392
-5.0,22.0,0.393
-1.0,15.0,0.394
4.0,7.0,0.395
4.0,2.0,0.396
4.0,3.0,0.397
6.0,5.0,0.398
10.0,5.0,0.399
7.0,2.0,0.4
0.0,-4.0,0.401
0.0,-4.0,0.402
8.0,-1.0,0.403
16.0,2.0,0.404
13.0,1.0,0.405
3.0,-1.0,0.406
-2.0,-3.0,0.407
1.0,-3.0,0.408
2.0,-2.0,0.409
-2.0,-3.0,0.41
-4.0,-5.0,0.411
-3.0,-9.0,0.412
-1.0,-9.0,0.413
-2.0,-5.0,0.414
-5.0,2.0,0.415
-5.0,8.0,0.416
0.0,11.0,0.417
5.0,14.0,0.418
8.0,14.0,0.419
7.0,9.0,0.42
8.0,-1.0,0.421
10.0,-9.0,0.422
14.0,-9.0,0.423
18.0,-8.0,0.424
17.0,-9.0,0.425
12.0,-14.0,0.426
5.0,-19.0,0.427
0.0,-19.0,0.428
-5.0,-13.0,0.429
-15.0,-6.0,0.43
-23.0,1.0,0.431
-23.0,10.0,0.432
-17.0,16.0,0.433
-12.0,16.0,0.434
-12.0,13.0,0.435
-12.0,17.0,0.436
-8.0,30.0,0.437
-5.0,34.0,0.438
-4.0,20.0,0.439
-5.0,-5.0,0.44
-2.0,-25.0,0.441
7.0,-25.0,0.442
20.0,-13.0,0.443
29.0,-3.0,0.444
32.0,0.0,0.445
32.0,-8.0,0.446
33.0,-17.0,0.447
37.0,-24.0,0.448
36.0,-30.0,0.449
29.0,-47.0,0.45
17.0,-77.0,0.451
2.0,-96.0,0.452
-18.0,-76.0,0.453
-36.0,-18.0,0.454
-38.0,41.0,0.455
-27.0,73.0,0.456
-20.0,78.0,0.457
-31.0,69.0,0.458
-43.0,58.0,0.459
-41.0,46.0,0.46
-28.0,38.0,0.461
-21.0,54.0,0.462
-14.0,80.0,0.463
4.0,81.0,0.464
22.0,39.0,0.465
24.0,-17.0,0.466
16.0,-48.0,0.467
14.0,-55.0,0.468
19.0,-63.0,0.469
19.0,-75.0,0.47
16.0,-65.0,0.471
15.0,-26.0,0.472
17.0,10.0,0.473
15.0,16.0,0.474
11.0,3.0,0.475
10.0,-9.0,0.476
13.0,-18.0,0.477
9.0,-31.0,0.478
5.0,-37.0,0.479
5.0,-27.0,0.48
10.0,-14.0,0.481
16.0,-9.0,0.482
21.0,-6.0,0.483
25.0,2.0,0.484
24.0,11.0,0.485
19.0,11.0,0.486
15.0,7.0,0.487
16.0,9.0,0.488
15.0,11.0,0.489
7.0,13.0,0.49
-2.0,13.0,0.491
-7.0,13.0,0.492
-11.0,12.0,0.493
-17.0,10.0,0.494
-18.0,12.0,0.495
-13.0,15.0,0.496
-6.0,16.0,0.497
-3.0,8.0,0.498
-3.0,3.0,0.499
-4.0,2.0,0.5
-6.0,-3.0,0.501
-6.0,-12.0,0.502
0.0,-23.0,0.503
5.0,-21.0,0.504
3.0,-9.0,0.505
1.0,9.0,0.506
1.0,21.0,0.507
1.0,18.0,0.508
0.0,13.0,0.509
-2.0,23.0,0.51
-1.0,37.0,0.511
0.0,38.0,0.512
-1.0,27.0,0.513
-2.0,15.0,0.514
-2.0,10.0,0.515
-1.0,0.0,0.516
0.0,-10.0,0.517
3.0,-16.0,0.518
7.0,-12.0,0.519
7.0,-11.0,0.52
5.0,-20.0,0.521
4.0,-26.0,0.522
10.0,-23.0,0.523
17.0,-20.0,0.524
15.0,-22.0,0.525
9.0,-23.0,0.526
6.0,-21.0,0.527
9.0,-19.0,0.528
9.0,-16.0,0.529
4.0,-11.0,0.53
-1.0,-4.0,0.531
-5.0,3.0,0.532
-9.0,9.0,0.533
-15.0,15.0,0.534
-17.0,19.0,0.535
-15.0,21.0,0.536
-8.0,15.0,0.537
-2.0,9.0,0.538
2.0,2.0,0.539
0.0,0.0,0.54
-3.0,-3.0,0.541
0.0,-2.0,0.542
10.0,-1.0,0.543
20.0,-5.0,0.544
19.0,-19.0,0.545
15.0,-40.0,0.546
13.0,-52.0,0.547
14.0,-40.0,0.548
13.0,-13.0,0.549
10.0,11.0,0.55
5.0,24.0,0.551
0.0,31.0,0.552
-5.0,36.0,0.553
-6.0,32.0,0.554
-4.0,20.0,0.555
-2.0,7.0,0.556
0.0,5.0,0.557
0.0,7.0,0.558
2.0,2.0,0.559
2.0,-12.0,0.56
0.0,-34.0,0.561
-2.0,-43.0,0.562
1.0,-24.0,0.563
3.0,14.0,0.564
-3.0,45.0,0.565
-13.0,55.0,0.566
-14.0,48.0,0.567
-6.0,39.0,0.568
0.0,22.0,0.569
0.0,-2.0,0.57
-2.0,-21.0,0.571
-2.0,-19.0,0.572
-3.0,-3.0,0.573
-6.0,5.0,0.574
-6.0,-9.0,0.575
-3.0,-44.0,0.576
1.0,-78.0,0.577
2.0,-89.0,0.578
5.0,-51.0,0.579
8.0,9.0,0.58
8.0,43.0,0.581
9.0,38.0,0.582
17.0,19.0,0.583
23.0,4.0,0.584
23.0,-20.0,0.585
21.0,-56.0,0.586
17.0,-76.0,0.587
14.0,-52.0,0.588
13.0,3.0,0.589
12.0,49.0,0.59
11.0,65.0,0.591
9.0,60.0,0.592
6.0,50.0,0.593
4.0,40.0,0.594
3.0,26.0,0.595
1.0,11.0,0.596
-3.0,4.0,0.597
-7.0,-1.0,0.598
-9.0,-4.0,0.599
-8.0,-6.0,0.6
-7.0,0.0,0.601
-7.0,4.0,0.602
-3.0,7.0,0.603
4.0,9.0,0.604
8.0,4.0,0.605
7.0,-3.0,0.606
4.0,-17.0,0.607
3.0,-26.0,0.608
1.0,-15.0,0.609
-1.0,-5.0,0.61
-3.0,-1.0,0.611
-3.0,2.0,0.612
-1.0,1.0,0.613
-2.0,0.0,0.614
-2.0,1.0,0.615
-1.0,2.0,0.616
0.0,0.0,0.617
-4.0,-2.0,0.618
-7.0,-5.0,0.619
-4.0,-2.0,0.62
1.0,1.0,0.621
7.0,3.0,0.622
14.0,2.0,0.623
22.0,3.0,0.624
24.0,11.0,0.625
18.0,23.0,0.626
11.0,33.0,0.627
4.0,38.0,0.628
-2.0,34.0,0.629
-5.0,8.0,0.63
-4.0,-33.0,0.631
1.0,-68.0,0.632
3.0,-66.0,0.633
-3.0,-33.0,0.634
-9.0,-10.0,0.635
-6.0,-27.0,0.636
3.0,-59.0,0.637
8.0,-68.0,0.638
5.0,-39.0,0.639
-5.0,3.0,0.64
-13.0,28.0,0.641
-16.0,30.0,0.642
-9.0,15.0,0.643
0.0,-1.0,0.644
-1.0,1.0,0.645
-9.0,20.0,0.646
-11.0,35.0,0.647
-1.0,31.0,0.648
8.0,20.0,0.649
7.0,18.0,0.65
3.0,22.0,0.651
9.0,14.0,0.652
16.0,4.0,0.653
12.0,7.0,0.654
4.0,23.0,0.655
5.0,34.0,0.656
11.0,36.0,0.657
9.0,33.0,0.658
6.0,27.0,0.659
8.0,13.0,0.66
12.0,-9.0,0.661
9.0,-26.0,0.662
8.0,-35.0,0.663
10.0,-30.0,0.664
11.0,-19.0,0.665
2.0,-11.0,0.666
-3.0,-17.0,0.667
-2.0,-31.0,0.668
0.0,-36.0,0.669
-6.0,-24.0,0.67
-13.0,-9.0,0.671
-13.0,-4.0,0.672
-11.0,-3.0,0.673
-10.0,4.0,0.674
-4.0,13.0,0.675
5.0,12.0,0.676
10.0,-1.0,0.677
7.0,-24.0,0.678
6.0,-35.0,0.679
8.0,-20.0,0.68
6.0,9.0,0.681
2.0,30.0,0.682
7.0,16.0,0.683
17.0,-10.0,0.684
18.0,-19.0,0.685
11.0,-10.0,0.686
6.0,-5.0,0.687
9.0,-10.0,0.688
9.0,-10.0,0.689
2.0,-2.0,0.69
-1.0,-2.0,0.691
6.0,-6.0,0.692
10.0,-6.0,0.693
5.0,-5.0,0.694
-1.0,-11.0,0.695
-4.0,-23.0,0.696
-1.0,-17.0,0.697
1.0,10.0,0.698
7.0,46.0,0.699
10.0,69.0,0.7
5.0,63.0,0.701
2.0,34.0,0.702
10.0,0.0,0.703
26.0,-34.0,0.704
31.0,-69.0,0.705
20.0,-98.0,0.706
6.0,-94.0,0.707
-2.0,-36.0,0.708
-9.0,43.0,0.709
-18.0,94.0,0.71
-25.0,107.0,0.711
-24.0,101.0,0.712
-21.0,91.0,0.713
-21.0,76.0,0.714
-21.0,66.0,0.715
-17.0,76.0,0.716
-8.0,89.0,0.717
-1.0,73.0,0.718
5.0,18.0,0.719
11.0,-52.0,0.72
13.0,-107.0,0.721
16.0,-122.0,0.722
22.0,-105.0,0.723
27.0,-76.0,0.724
27.0,-48.0,0.725
27.0,-26.0,0.726
22.0,-11.0,0.727
16.0,-7.0,0.728
10.0,-10.0,0.729
3.0,-16.0,0.73
-6.0,-19.0,0.731
-16.0,-24.0,0.732
-25.0,-32.0,0.733
-31.0,-35.0,0.734
-28.0,-28.0,0.735
-24.0,-18.0,0.736
-16.0,-10.0,0.737
-6.0,4.0,0.738
-1.0,31.0,0.739
1.0,59.0,0.74
1.0,68.0,0.741
4.0,57.0,0.742
14.0,30.0,0.743
22.0,-7.0,0.744
21.0,-37.0,0.745
11.0,-44.0,0.746
4.0,-33.0,0.747
8.0,-23.0,0.748
11.0,-17.0,0.749
10.0,-9.0,0.75
7.0,0.0,0.751
3.0,2.0,0.752
0.0,-5.0,0.753
-3.0,-6.0,0.754
-2.0,2.0,0.755
2.0,8.0,0.756
4.0,9.0,0.757
4.0,8.0,0.758
2.0,14.0,0.759
0.0,24.0,0.76
-2.0,27.0,0.761
-2.0,23.0,0.762
5.0,11.0,0.763
11.0,-5.0,0.764
9.0,-12.0,0.765
0.0,-10.0,0.766
-6.0,0.0,0.767
-3.0,6.0,0.768
-2.0,14.0,0.769
-2.0,27.0,0.77
-3.0,33.0,0.771
-2.0,28.0,0.772
-2.0,13.0,0.773
-1.0,1.0,0.774
1.0,-3.0,0.775
4.0,-9.0,0.776
5.0,-21.0,0.777
3.0,-36.0,0.778
4.0,-39.0,0.779
3.0,-22.0,0.78
2.0,-6.0,0.781
4.0,-1.0,0.782
14.0,-5.0,0.783
26.0,-2.0,0.784
26.0,9.0,0.785
17.0,10.0,0.786
10.0,-6.0,0.787
8.0,-18.0,0.788
7.0,-12.0,0.789
0.0,1.0,0.79
-6.0,5.0,0.791
-5.0,0.0,0.792
-4.0,-4.0,0.793
-3.0,-7.0,0.794
-4.0,-7.0,0.795
-2.0,-5.0,0.796
3.0,5.0,0.797
2.0,19.0,0.798
0.0,30.0,0.799
-3.0,31.0,0.8
-6.0,20.0,0.801
-5.0,4.0,0.802
0.0,-10.0,0.803
11.0,-14.0,0.804
12.0,-6.0,0.805
3.0,4.0,0.806
-2.0,8.0,0.807
-1.0,5.0,0.808
-2.0,0.0,0.809
-11.0,-6.0,0.81
-17.0,-20.0,0.811
-15.0,-33.0,0.812
-11.0,-34.0,0.813
-9.0,-12.0,0.814
-3.0,17.0,0.815
6.0,26.0,0.816
15.0,5.0,0.817
15.0,-34.0,0.818
15.0,-60.0,0.819
15.0,-51.0,0.82
14.0,-10.0,0.821
12.0,46.0,0.822
13.0,89.0,0.823
15.0,97.0,0.824
13.0,79.0,0.825
4.0,57.0,0.826
1.0,41.0,0.827
3.0,21.0,0.828
2.0,-5.0,0.829
-5.0,-23.0,0.83
-11.0,-27.0,0.831
-8.0,-18.0,0.832
-3.0,5.0,0.833
-2.0,30.0,0.834
-2.0,20.0,0.835
0.0,-30.0,0.836
5.0,-76.0,0.837
10.0,-78.0,0.838
12.0,-48.0,0.839
6.0,-27.0,0.84
-2.0,-31.0,0.841
-5.0,-32.0,0.842
1.0,-20.0,0.843
7.0,-11.0,0.844
6.0,-18.0,0.845
1.0,-21.0,0.846
1.0,-7.0,0.847
8.0,1.0,0.848
10.0,-7.0,0.849
3.0,-11.0,0.85
-3.0,-3.0,0.851
-3.0,4.0,0.852
-2.0,8.0,0.853
-3.0,12.0,0.854
-2.0,12.0,0.855
2.0,12.0,0.856
9.0,6.0,0.857
11.0,0.0,0.858
14.0,-7.0,0.859
13.0,-16.0,0.86
11.0,-16.0,0.861
11.0,4.0,0.862
17.0,21.0,0.863
22.0,17.0,0.864
18.0,3.0,0.865
5.0,4.0,0.866
-2.0,21.0,0.867
-1.0,35.0,0.868
-1.0,40.0,0.869
-4.0,39.0,0.87
-5.0,24.0,0.871
-4.0,-8.0,0.872
-4.0,-41.0,0.873
-6.0,-53.0,0.874
-7.0,-41.0,0.875
-6.0,-15.0,0.876
-5.0,10.0,0.877
-5.0,29.0,0.878
-1.0,36.0,0.879
0.0,33.0,0.88
-2.0,25.0,0.881
-2.0,18.0,0.882
7.0,4.0,0.883
16.0,-10.0,0.884
15.0,-9.0,0.885
9.0,2.0,0.886
6.0,-3.0,0.887
5.0,-27.0,0.888
0.0,-39.0,0.889
-4.0,-22.0,0.89
-5.0,-1.0,0.891
-4.0,4.0,0.892
-5.0,3.0,0.893
-8.0,9.0,0.894
-7.0,13.0,0.895
-6.0,5.0,0.896
-8.0,0.0,0.897
-10.0,9.0,0.898
-9.0,19.0,0.899
-8.0,13.0,0.9
-7.0,-3.0,0.901
-2.0,-9.0,0.902
9.0,-4.0,0.903
15.0,2.0,0.904
12.0,4.0,0.905
4.0,0.0,0.906
3.0,-20.0,0.907
7.0,-56.0,0.908
10.0,-82.0,0.909
8.0,-71.0,0.91
11.0,-26.0,0.911
12.0,20.0,0.912
12.0,45.0,0.913
10.0,49.0,0.914
12.0,45.0,0.915
17.0,40.0,0.916
21.0,38.0,0.917
19.0,33.0,0.918
12.0,23.0,0.919
-1.0,4.0,0.92
-14.0,-17.0,0.921
-15.0,-26.0,0.922
-2.0,-20.0,0.923
12.0,-14.0,0.924
12.0,-16.0,0.925
1.0,-22.0,0.926
-4.0,-18.0,0.927
-6.0,-10.0,0.928
-9.0,-5.0,0.929
-14.0,0.0,0.93
-15.0,11.0,0.931
-10.0,23.0,0.932
-6.0,22.0,0.933
-6.0,14.0,0.934
-3.0,12.0,0.935
1.0,20.0,0.936
4.0,26.0,0.937
4.0,16.0,0.938
8.0,3.0,0.939
11.0,-6.0,0.94
13.0,-14.0,0.941
14.0,-20.0,0.942
20.0,-22.0,0.943
27.0,-14.0,0.944
27.0,-5.0,0.945
21.0,-3.0,0.946
20.0,-11.0,0.947
24.0,-13.0,0.948
24.0,-2.0,0.949
16.0,5.0,0.95
7.0,-18.0,0.951
2.0,-72.0,0.952
-2.0,-103.0,0.953
-15.0,-66.0,0.954
-28.0,14.0,0.955
-29.0,71.0,0.956
-20.0,75.0,0.957
-15.0,54.0,0.958
-18.0,39.0,0.959
-26.0,21.0,0.96
-24.0,-15.0,0.961
-14.0,-49.0,0.962
1.0,-45.0,0.963
11.0,2.0,0.964
10.0,64.0,0.965
5.0,107.0,0.966
9.0,109.0,0.967
16.0,72.0,0.968
17.0,21.0,0.969
14.0,-22.0,0.97
14.0,-48.0,0.971
17.0,-61.0,0.972
11.0,-66.0,0.973
2.0,-61.0,0.974
0.0,-46.0,0.975
5.0,-31.0,0.976
7.0,-17.0,0.977
-2.0,-10.0,0.978
-11.0,-13.0,0.979
-8.0,-26.0,0.98
2.0,-35.0,0.981
9.0,-24.0,0.982
11.0,-5.0,0.983
12.0,7.0,0.984
13.0,14.0,0.985
7.0,28.0,0.986
-4.0,40.0,0.987
-9.0,39.0,0.988
-9.0,28.0,0.989
-9.0,19.0,0.99
-7.0,12.0,0.991
-2.0,-1.0,0.992
0.0,-21.0,0.993
0.0,-32.0,0.994
0.0,-32.0,0.995
5.0,-27.0,0.996
9.0,-20.0,0.997
8.0,-13.0,0.998
9.0,-9.0,0.999
12.0,-8.0,1.0
13.0,-11.0,1.001
11.0,-2.0,1.002
14.0,6.0,1.003
22.0,4.0,1.004
24.0,1.0,1.005
14.0,9.0,1.006
1.0,15.0,1.007
-2.0,7.0,1.008
-3.0,0.0,1.009
-10.0,16.0,1.01
-16.0,44.0,1.011
-9.0,50.0,1.012
-4.0,34.0,1.013
-8.0,26.0,1.014
-15.0,32.0,1.015
-10.0,37.0,1.016
0.0,38.0,1.017
6.0,43.0,1.018
7.0,50.0,1.019
7.0,30.0,1.02
8.0,-20.0,1.021
4.0,-65.0,1.022
-1.0,-79.0,1.023
1.0,-75.0,1.024
5.0,-67.0,1.025
3.0,-44.0,1.026
3.0,-7.0,1.027
9.0,18.0,1.028
13.0,12.0,1.029
11.0,-7.0,1.03
5.0,-7.0,1.031
3.0,12.0,1.032
-1.0,31.0,1.033
-5.0,34.0,1.034
-7.0,23.0,1.035
-4.0,6.0,1.036
0.0,-2.0,1.037
2.0,-1.0,1.038
0.0,1.0,1.039
-4.0,-7.0,1.04
-7.0,-24.0,1.041
-5.0,-29.0,1.042
2.0,-21.0,1.043
9.0,-16.0,1.044
7.0,-12.0,1.045
3.0,1.0,1.046
8.0,23.0,1.047
16.0,34.0,1.048
15.0,22.0,1.049
5.0,-5.0,1.05
-2.0,-37.0,1.051
-3.0,-70.0,1.052
2.0,-96.0,1.053
5.0,-98.0,1.054
10.0,-72.0,1.055
14.0,-24.0,1.056
15.0,33.0,1.057
7.0,81.0,1.058
-6.0,100.0,1.059
-16.0,86.0,1.06
-17.0,60.0,1.061
-15.0,46.0,1.062
0.0,40.0,1.063
11.0,28.0,1.064
8.0,14.0,1.065
4.0,9.0,1.066
-1.0,11.0,1.067
-8.0,14.0,1.068
-14.0,22.0,1.069
-19.0,27.0,1.07
-17.0,10.0,1.071
-14.0,-19.0,1.072
-5.0,-35.0,1.073
2.0,-23.0,1.074
5.0,-6.0,1.075
8.0,-7.0,1.076
12.0,-21.0,1.077
15.0,-43.0,1.078
13.0,-55.0,1.079
10.0,-59.0,1.08
9.0,-35.0,1.081
8.0,-16.0,1.082
12.0,-10.0,1.083
20.0,-8.0,1.084
23.0,-18.0,1.085
16.0,-24.0,1.086
11.0,-16.0,1.087
13.0,-7.0,1.088
14.0,-1.0,1.089
9.0,0.0,1.09
1.0,-10.0,1.091
2.0,-13.0,1.092
4.0,12.0,1.093
1.0,32.0,1.094
-5.0,39.0,1.095
-3.0,42.0,1.096
0.0,32.0,1.097
1.0,27.0,1.098
-3.0,29.0,1.099
-6.0,17.0,1.1
-4.0,-5.0,1.101
0.0,-22.0,1.102
6.0,-33.0,1.103
15.0,-31.0,1.104
18.0,-4.0,1.105
14.0,32.0,1.106
5.0,47.0,1.107
2.0,29.0,1.108
6.0,7.0,1.109
9.0,1.0,1.11
1.0,1.0,1.111
-9.0,-11.0,1.112
-15.0,-20.0,1.113
-11.0,-11.0,1.114
-5.0,9.0,1.115
-2.0,23.0,1.116
0.0,21.0,1.117
-1.0,3.0,1.118
-2.0,-13.0,1.119
-7.0,-14.0,1.12
-10.0,-1.0,1.121
-7.0,9.0,1.122
3.0,-1.0,1.123
12.0,-18.0,1.124
13.0,-19.0,1.125
10.0,-7.0,1.126
6.0,-4.0,1.127
5.0,-7.0,1.128
1.0,0.0,1.129
-5.0,25.0,1.13
-7.0,40.0,1.131
-6.0,20.0,1.132
-7.0,-44.0,1.133
-5.0,-122.0,1.134
-1.0,-155.0,1.135
4.0,-100.0,1.136
9.0,4.0,1.137
10.0,85.0,1.138
12.0,96.0,1.139
13.0,67.0,1.14
11.0,46.0,1.141
11.0,41.0,1.142
15.0,29.0,1.143
18.0,8.0,1.144
16.0,-5.0,1.145
13.0,-8.0,1.146
8.0,-9.0,1.147
3.0,-8.0,1.148
0.0,-4.0,1.149
-4.0,-4.0,1.15
-10.0,-12.0,1.151
-15.0,-18.0,1.152
-17.0,-12.0,1.153
-17.0,-2.0,1.154
-9.0,2.0,1.155
-2.0,6.0,1.156
0.0,14.0,1.157
2.0,18.0,1.158
-1.0,4.0,1.159
0.0,-21.0,1.16
3.0,-42.0,1.161
9.0,-31.0,1.162
17.0,2.0,1.163
24.0,27.0,1.164
23.0,17.0,1.165
17.0,-11.0,1.166
9.0,-23.0,1.167
7.0,-6.0,1.168
6.0,13.0,1.169
1.0,16.0,1.17
-3.0,10.0,1.171
-7.0,11.0,1.172
-12.0,9.0,1.173
-18.0,-1.0,1.174
-20.0,-9.0,1.175
-16.0,-2.0,1.176
-6.0,11.0,1.177
1.0,13.0,1.178
3.0,9.0,1.179
-1.0,7.0,1.18
-4.0,5.0,1.181
1.0,-4.0,1.182
14.0,-18.0,1.183
20.0,-23.0,1.184
16.0,-13.0,1.185
8.0,6.0,1.186
9.0,15.0,1.187
10.0,11.0,1.188
5.0,7.0,1.189
-2.0,13.0,1.19
-2.0,23.0,1.191
3.0,20.0,1.192
7.0,6.0,1.193
4.0,-7.0,1.194
1.0,-12.0,1.195
2.0,-15.0,1.196
7.0,-14.0,1.197
8.0,-12.0,1.198
10.0,-6.0,1.199
12.0,-4.0,1.2
9.0,-7.0,1.201
5.0,-6.0,1.202
4.0,1.0,1.203
5.0,6.0,1.204
0.0,1.0,1.205
-5.0,-5.0,1.206
-6.0,-8.0,1.207
-2.0,-7.0,1.208
0.0,-5.0,1.209
-3.0,1.0,1.21
-5.0,16.0,1.211
-4.0,31.0,1.212
-4.0,31.0,1.213
-5.0,8.0,1.214
-3.0,-29.0,1.215
4.0,-62.0,1.216
10.0,-72.0,1.217
12.0,-57.0,1.218
12.0,-30.0,1.219
12.0,-8.0,1.22
9.0,2.0,1.221
8.0,12.0,1.222
12.0,21.0,1.223
15.0,21.0,1.224
12.0,16.0,1.225
9.0,12.0,1.226
7.0,10.0,1.227
4.0,8.0,1.228
-1.0,9.0,1.229
-6.0,14.0,1.23
-8.0,20.0,1.231
-10.0,19.0,1.232
-6.0,12.0,1.233
-2.0,5.0,1.234
-1.0,-3.0,1.235
0.0,-7.0,1.236
1.0,-7.0,1.237
3.0,-5.0,1.238
5.0,3.0,1.239
7.0,10.0,1.24
9.0,8.0,1.241
10.0,3.0,1.242
14.0,-13.0,1.243
18.0,-24.0,1.244
14.0,-20.0,1.245
3.0,-16.0,1.246
0.0,-13.0,1.247
3.0,-8.0,1.248
6.0,-1.0,1.249
-2.0,4.0,1.25
-12.0,5.0,1.251
-17.0,7.0,1.252
-15.0,5.0,1.253
-13.0,3.0,1.254
-11.0,-1.0,1.255
-9.0,-5.0,1.256
-9.0,-5.0,1.257
-8.0,0.0,1.258
-2.0,15.0,1.259
1.0,28.0,1.26
0.0,28.0,1.261
0.0,29.0,1.262
10.0,31.0,1.263
25.0,13.0,1.264
27.0,-34.0,1.265
16.0,-81.0,1.266
7.0,-74.0,1.267
9.0,-14.0,1.268
11.0,41.0,1.269
5.0,47.0,1.27
-1.0,23.0,1.271
0.0,2.0,1.272
0.0,-12.0,1.273
-2.0,-34.0,1.274
-4.0,-49.0,1.275
-2.0,-36.0,1.276
0.0,-8.0,1.277
8.0,1.0,1.278
13.0,-20.0,1.279
18.0,-56.0,1.28
8.0,-74.0,1.281
4.0,-47.0,1.282
13.0,27.0,1.283
23.0,109.0,1.284
21.0,146.0,1.285
16.0,126.0,1.286
2.0,78.0,1.287
-5.0,31.0,1.288
0.0,-1.0,1.289
4.0,-16.0,1.29
-5.0,-14.0,1.291
-13.0,-9.0,1.292
-3.0,-15.0,1.293
2.0,-22.0,1.294
-8.0,-18.0,1.295
-13.0,-13.0,1.296
-5.0,-14.0,1.297
6.0,-12.0,1.298
8.0,-1.0,1.299
10.0,6.0,1.3
6.0,0.0,1.301
4.0,-4.0,1.302
8.0,-1.0,1.303
12.0,-5.0,1.304
11.0,-22.0,1.305
9.0,-32.0,1.306
3.0,-26.0,1.307
0.0,-16.0,1.308
2.0,-15.0,1.309
4.0,-13.0,1.31
0.0,-5.0,1.311
-3.0,-4.0,1.312
1.0,-19.0,1.313
3.0,-34.0,1.314
-1.0,-28.0,1.315
-3.0,-10.0,1.316
0.0,3.0,1.317
3.0,5.0,1.318
4.0,9.0,1.319
2.0,15.0,1.32
5.0,17.0,1.321
11.0,17.0,1.322
18.0,21.0,1.323
25.0,24.0,1.324
23.0,17.0,1.325
14.0,5.0,1.326
5.0,-1.0,1.327
0.0,2.0,1.328
-3.0,6.0,1.329
-6.0,4.0,1.33
-8.0,0.0,1.331
-7.0,2.0,1.332
-11.0,9.0,1.333
-19.0,14.0,1.334
-21.0,17.0,1.335
-13.0,17.0,1.336
-5.0,16.0,1.337
-4.0,12.0,1.338
-8.0,9.0,1.339
-7.0,3.0,1.34
-1.0,-11.0,1.341
8.0,-22.0,1.342
17.0,-23.0,1.343
24.0,-14.0,1.344
25.0,-3.0,1.345
20.0,16.0,1.346
16.0,35.0,1.347
14.0,35.0,1.348
9.0,6.0,1.349
3.0,-37.0,1.35
0.0,-60.0,1.351
3.0,-58.0,1.352
2.0,-46.0,1.353
-3.0,-35.0,1.354
-5.0,-17.0,1.355
0.0,2.0,1.356
6.0,8.0,1.357
3.0,-4.0,1.358
-3.0,-3.0,1.359
-10.0,26.0,1.36
-14.0,51.0,1.361
-14.0,41.0,1.362
1.0,-3.0,1.363
9.0,-33.0,1.364
2.0,-17.0,1.365
-1.0,23.0,1.366
12.0,47.0,1.367
23.0,42.0,1.368
16.0,22.0,1.369
9.0,1.0,1.37
4.0,-16.0,1.371
1.0,-19.0,1.372
4.0,-2.0,1.373
8.0,13.0,1.374
7.0,-4.0,1.375
5.0,-52.0,1.376
5.0,-79.0,1.377
3.0,-60.0,1.378
-2.0,-17.0,1.379
-7.0,15.0,1.38
-10.0,11.0,1.381
-10.0,7.0,1.382
1.0,7.0,1.383
8.0,6.0,1.384
2.0,0.0,1.385
0.0,-9.0,1.386
10.0,-23.0,1.387
18.0,-21.0,1.388
13.0,35.0,1.389
8.0,70.0,1.39
4.0,43.0,1.391
1.0,20.0,1.392
4.0,13.0,1.393
7.0,12.0,1.394
6.0,34.0,1.395
5.0,39.0,1.396
5.0,-12.0,1.397
5.0,-46.0,1.398
0.0,-16.0,1.399
-3.0,-2.0,1.4
-5.0,-20.0,1.401
-4.0,-27.0,1.402
1.0,-18.0,1.403
9.0,-20.0,1.404
11.0,-28.0,1.405
6.0,-17.0,1.406
0.0,3.0,1.407
0.0,14.0,1.408
2.0,22.0,1.409
3.0,41.0,1.41
3.0,52.0,1.411
1.0,34.0,1.412
0.0,6.0,1.413
1.0,-3.0,1.414
3.0,-3.0,1.415
5.0,-13.0,1.416
5.0,-26.0,1.417
4.0,-26.0,1.418
6.0,-17.0,1.419
6.0,-16.0,1.42
5.0,-26.0,1.421
2.0,-26.0,1.422
4.0,-23.0,1.423
9.0,-21.0,1.424
7.0,-16.0,1.425
0.0,-5.0,1.426
-5.0,3.0,1.427
-1.0,-2.0,1.428
2.0,-8.0,1.429
0.0,0.0,1.43
-4.0,19.0,1.431
-5.0,27.0,1.432
-2.0,16.0,1.433
1.0,4.0,1.434
3.0,11.0,1.435
4.0,34.0,1.436
5.0,52.0,1.437
1.0,50.0,1.438
-1.0,32.0,1.439
-4.0,11.0,1.44
-5.0,-3.0,1.441
-5.0,-8.0,1.442
-1.0,-14.0,1.443
2.0,-21.0,1.444
4.0,-22.0,1.445
5.0,-17.0,1.446
5.0,-12.0,1.447
5.0,-12.0,1.448
4.0,-10.0,1.449
3.0,-8.0,1.45
2.0,-6.0,1.451
1.0,-3.0,1.452
0.0,3.0,1.453
0.0,13.0,1.454
-3.0,14.0,1.455
-6.0,5.0,1.456
-7.0,-3.0,1.457
3.0,-6.0,1.458
-2.0,-2.0,1.459
-8.0,0.0,1.46
-10.0,-6.0,1.461
-11.0,-17.0,1.462
-3.0,-33.0,1.463
4.0,-44.0,1.464
8.0,-38.0,1.465
11.0,-18.0,1.466
11.0,-1.0,1.467
11.0,8.0,1.468
8.0,13.0,1.469
6.0,20.0,1.47
4.0,28.0,1.471
3.0,31.0,1.472
1.0,32.0,1.473
-1.0,28.0,1.474
-7.0,17.0,1.475
-13.0,7.0,1.476
-15.0,3.0,1.477
-16.0,5.0,1.478
-9.0,8.0,1.479
-6.0,11.0,1.48
-7.0,4.0,1.481
-7.0,-4.0,1.482
1.0,0.0,1.483
14.0,23.0,1.484
19.0,37.0,1.485
15.0,8.0,1.486
12.0,-49.0,1.487
14.0,-81.0,1.488
13.0,-60.0,1.489
5.0,-22.0,1.49
-2.0,-5.0,1.491
-2.0,-5.0,1.492
2.0,0.0,1.493
3.0,6.0,1.494
3.0,1.0,1.495
2.0,-8.0,1.496
3.0,-13.0,1.497
0.0,-27.0,1.498
1.0,-60.0,1.499
2.0,-89.0,1.5
4.0,-74.0,1.501
8.0,-12.0,1.502
16.0,51.0,1.503
23.0,80.0,1.504
20.0,89.0,1.505
11.0,99.0,1.506
3.0,93.0,1.507
5.0,50.0,1.508
5.0,-8.0,1.509
0.0,-43.0,1.51
-6.0,-59.0,1.511
-5.0,-75.0,1.512
-3.0,-75.0,1.513
-4.0,-36.0,1.514
-8.0,16.0,1.515
-8.0,33.0,1.516
-3.0,17.0,1.517
0.0,6.0,1.518
3.0,24.0,1.519
4.0,41.0,1.52
1.0,36.0,1.521
-1.0,29.0,1.522
3.0,27.0,1.523
12.0,19.0,1.524
15.0,6.0,1.525
10.0,2.0,1.526
3.0,12.0,1.527
5.0,17.0,1.528
6.0,9.0,1.529
3.0,-7.0,1.53
-2.0,-25.0,1.531
-3.0,-45.0,1.532
-4.0,-51.0,1.533
-3.0,-35.0,1.534
0.0,-14.0,1.535
5.0,-11.0,1.536
7.0,-14.0,1.537
5.0,-9.0,1.538
4.0,7.0,1.539
3.0,15.0,1.54
6.0,7.0,1.541
10.0,5.0,1.542
15.0,10.0,1.543
18.0,13.0,1.544
12.0,12.0,1.545
6.0,12.0,1.546
0.0,10.0,1.547
-4.0,7.0,1.548
-7.0,1.0,1.549
-11.0,-1.0,1.55
-15.0,-5.0,1.551
-17.0,-8.0,1.552
-11.0,-6.0,1.553
-6.0,0.0,1.554
-3.0,4.0,1.555
0.0,6.0,1.556
1.0,11.0,1.557
4.0,15.0,1.558
8.0,11.0,1.559
11.0,-1.0,1.56
12.0,-14.0,1.561
13.0,-12.0,1.562
15.0,-11.0,1.563
17.0,-14.0,1.564
14.0,-15.0,1.565
3.0,-6.0,1.566
-2.0,0.0,1.567
-1.0,-4.0,1.568
1.0,-12.0,1.569
-2.0,-12.0,1.57
-5.0,-8.0,1.571
-9.0,-6.0,1.572
-11.0,-7.0,1.573
-8.0,-8.0,1.574
-4.0,-9.0,1.575
0.0,-14.0,1.576
6.0,-18.0,1.577
11.0,-19.0,1.578
15.0,-13.0,1.579
12.0,-6.0,1.58
4.0,-4.0,1.581
1.0,-6.0,1.582
8.0,-5.0,1.583
17.0,4.0,1.584
17.0,19.0,1.585
10.0,26.0,1.586
3.0,21.0,1.587
-3.0,17.0,1.588
-11.0,24.0,1.589
-22.0,33.0,1.59
-24.0,30.0,1.591
-20.0,16.0,1.592
-16.0,8.0,1.593
-14.0,6.0,1.594
-9.0,-6.0,1.595
0.0,-31.0,1.596
8.0,-49.0,1.597
11.0,-34.0,1.598
12.0,20.0,1.599
10.0,80.0,1.6
8.0,79.0,1.601
4.0,12.0,1.602
7.0,-62.0,1.603
14.0,-82.0,1.604
17.0,-60.0,1.605
13.0,-55.0,1.606
5.0,-82.0,1.607
2.0,-87.0,1.608
0.0,-35.0,1.609
-5.0,38.0,1.61
-9.0,84.0,1.611
-9.0,100.0,1.612
-4.0,100.0,1.613
-1.0,88.0,1.614
0.0,56.0,1.615
2.0,23.0,1.616
7.0,11.0,1.617
9.0,15.0,1.618
8.0,14.0,1.619
7.0,-3.0,1.62
9.0,-32.0,1.621
13.0,-57.0,1.622
18.0,-72.0,1.623
22.0,-70.0,1.624
18.0,-49.0,1.625
13.0,-26.0,1.626
11.0,-15.0,1.627
9.0,-12.0,1.628
5.0,-10.0,1.629
1.0,-7.0,1.63
-1.0,-9.0,1.631
-4.0,-10.0,1.632
-5.0,-8.0,1.633
-7.0,-2.0,1.634
-11.0,2.0,1.635
-12.0,0.0,1.636
-6.0,1.0,1.637
0.0,4.0,1.638
2.0,9.0,1.639
3.0,14.0,1.64
5.0,19.0,1.641
9.0,24.0,1.642
14.0,28.0,1.643
19.0,32.0,1.644
18.0,36.0,1.645
10.0,37.0,1.646
4.0,23.0,1.647
4.0,9.0,1.648
4.0,-4.0,1.649
0.0,-15.0,1.65
-5.0,-14.0,1.651
-5.0,-12.0,1.652
-6.0,-10.0,1.653
-9.0,-8.0,1.654
-11.0,-3.0,1.655
-8.0,1.0,1.656
-2.0,5.0,1.657
-2.0,9.0,1.658
2.0,10.0,1.659
5.0,2.0,1.66
5.0,-10.0,1.661
5.0,-10.0,1.662
7.0,0.0,1.663
10.0,11.0,1.664
13.0,13.0,1.665
15.0,9.0,1.666
11.0,-8.0,1.667
8.0,-35.0,1.668
7.0,-51.0,1.669
5.0,-39.0,1.67
0.0,-15.0,1.671
-4.0,-4.0,1.672
-6.0,-9.0,1.673
-9.0,-12.0,1.674
-8.0,-5.0,1.675
-6.0,4.0,1.676
-1.0,10.0,1.677
4.0,5.0,1.678
3.0,-2.0,1.679
2.0,-5.0,1.68
0.0,6.0,1.681
-4.0,17.0,1.682
-3.0,28.0,1.683
4.0,33.0,1.684
6.0,17.0,1.685
-3.0,2.0,1.686
-13.0,-8.0,1.687
-16.0,-18.0,1.688
-13.0,-26.0,1.689
-8.0,-23.0,1.69
-3.0,13.0,1.691
-3.0,42.0,1.692
-9.0,51.0,1.693
-16.0,60.0,1.694
-13.0,66.0,1.695
-2.0,66.0,1.696
8.0,41.0,1.697
10.0,7.0,1.698
12.0,-58.0,1.699
14.0,-112.0,1.7
14.0,-116.0,1.701
15.0,-55.0,1.702
17.0,18.0,1.703
18.0,25.0,1.704
16.0,-46.0,1.705
14.0,-114.0,1.706
15.0,-97.0,1.707
15.0,-18.0,1.708
13.0,37.0,1.709
10.0,39.0,1.71
5.0,31.0,1.711
1.0,44.0,1.712
3.0,52.0,1.713
4.0,30.0,1.714
-1.0,3.0,1.715
-5.0,-2.0,1.716
-3.0,3.0,1.717
1.0,-1.0,1.718
10.0,-1.0,1.719
12.0,-1.0,1.72
8.0,3.0,1.721
5.0,6.0,1.722
5.0,8.0,1.723
2.0,11.0,1.724
-3.0,17.0,1.725
-9.0,21.0,1.726
-10.0,13.0,1.727
-6.0,6.0,1.728
-4.0,3.0,1.729
-6.0,-1.0,1.73
-9.0,-7.0,1.731
-6.0,-12.0,1.732
1.0,-7.0,1.733
5.0,-3.0,1.734
4.0,-4.0,1.735
5.0,-6.0,1.736
13.0,-12.0,1.737
18.0,-14.0,1.738
19.0,-5.0,1.739
12.0,-7.0,1.74
4.0,-18.0,1.741
1.0,-13.0,1.742
5.0,4.0,1.743
13.0,11.0,1.744
15.0,2.0,1.745
4.0,-6.0,1.746
-5.0,-7.0,1.747
-4.0,-5.0,1.748
1.0,-3.0,1.749
-1.0,-1.0,1.75
-8.0,0.0,1.751
-8.0,-3.0,1.752
-3.0,-3.0,1.753
-3.0,6.0,1.754
-6.0,11.0,1.755
-5.0,7.0,1.756
0.0,6.0,1.757
5.0,10.0,1.758
4.0,13.0,1.759
1.0,7.0,1.76
3.0,-2.0,1.761
5.0,-2.0,1.762
9.0,-1.0,1.763
12.0,-3.0,1.764
11.0,-5.0,1.765
3.0,-2.0,1.766
-3.0,-2.0,1.767
-2.0,-7.0,1.768
1.0,-7.0,1.769
1.0,0.0,1.77
-1.0,3.0,1.771
-1.0,-1.0,1.772
1.0,-4.0,1.773
-1.0,1.0,1.774
-3.0,8.0,1.775
0.0,7.0,1.776
7.0,5.0,1.777
8.0,3.0,1.778
2.0,1.0,1.779
-2.0,-4.0,1.78
-2.0,-8.0,1.781
0.0,-8.0,1.782
5.0,-7.0,1.783
9.0,-6.0,1.784
6.0,-2.0,1.785
4.0,2.0,1.786
2.0,0.0,1.787
1.0,-4.0,1.788
1.0,-4.0,1.789
1.0,0.0,1.79
-2.0,0.0,1.791
-4.0,0.0,1.792
-2.0,0.0,1.793
-1.0,1.0,1.794
0.0,-3.0,1.795
2.0,-7.0,1.796
2.0,-4.0,1.797
4.0,0.0,1.798
2.0,1.0,1.799
0.0,-2.0,1.8
1.0,-6.0,1.801
6.0,-7.0,1.802
13.0,-6.0,1.803
16.0,-6.0,1.804
13.0,-3.0,1.805
8.0,1.0,1.806
9.0,2.0,1.807
12.0,2.0,1.808
10.0,3.0,1.809
1.0,5.0,1.81
-7.0,5.0,1.811
-13.0,2.0,1.812
-15.0,2.0,1.813
-14.0,5.0,1.814
-14.0,7.0,1.815
-12.0,3.0,1.816
-5.0,1.0,1.817
0.0,-2.0,1.818
7.0,-1.0,1.819
8.0,0.0,1.82
0.0,-3.0,1.821
-4.0,-6.0,1.822
2.0,-6.0,1.823
16.0,-5.0,1.824
23.0,-2.0,1.825
20.0,0.0,1.826
16.0,-1.0,1.827
16.0,-1.0,1.828
11.0,-2.0,1.829
2.0,-2.0,1.83
-3.0,-5.0,1.831
-1.0,-5.0,1.832
-3.0,-2.0,1.833
-17.0,4.0,1.834
-40.0,6.0,1.835
-59.0,5.0,1.836
-54.0,4.0,1.837
-26.0,0.0,1.838
11.0,-2.0,1.839
29.0,0.0,1.84
28.0,1.0,1.841
28.0,1.0,1.842
45.0,-4.0,1.843
57.0,-6.0,1.844
44.0,-4.0,1.845
10.0,-3.0,1.846
-12.0,-7.0,1.847
-5.0,-10.0,1.848
14.0,-7.0,1.849
24.0,-3.0,1.85
19.0,0.0,1.851
5.0,1.0,1.852
-7.0,4.0,1.853
-12.0,9.0,1.854
-9.0,11.0,1.855
-4.0,11.0,1.856
-1.0,11.0,1.857
-1.0,8.0,1.858
0.0,6.0,1.859
2.0,3.0,1.86
5.0,-2.0,1.861
9.0,-8.0,1.862
17.0,-11.0,1.863
19.0,-9.0,1.864
1.0,-5.0,1.865
-17.0,-5.0,1.866
-41.0,-8.0,1.867
-53.0,-6.0,1.868
-31.0,-3.0,1.869
-10.0,-1.0,1.87
8.0,-7.0,1.871
23.0,-9.0,1.872
25.0,-2.0,1.873
26.0,8.0,1.874
23.0,10.0,1.875
20.0,3.0,1.876
22.0,-6.0,1.877
20.0,-14.0,1.878
-9.0,-14.0,1.879
-34.0,-6.0,1.88
-29.0,1.0,1.881
-7.0,6.0,1.882
13.0,5.0,1.883
17.0,2.0,1.884
7.0,2.0,1.885
-4.0,8.0,1.886
-7.0,12.0,1.887
-3.0,11.0,1.888
1.0,10.0,1.889
0.0,10.0,1.89
-2.0,8.0,1.891
2.0,0.0,1.892
4.0,-8.0,1.893
0.0,-8.0,1.894
-3.0,-3.0,1.895
5.0,3.0,1.896
13.0,8.0,1.897
10.0,8.0,1.898
6.0,6.0,1.899
15.0,1.0,1.9
27.0,-7.0,1.901
27.0,-13.0,1.902
14.0,-16.0,1.903
-2.0,-17.0,1.904
-11.0,-17.0,1.905
-14.0,-12.0,1.906
-13.0,-4.0,1.907
-17.0,3.0,1.908
-23.0,4.0,1.909
-22.0,3.0,1.91
-16.0,3.0,1.911
-13.0,6.0,1.912
-20.0,6.0,1.913
-19.0,5.0,1.914
2.0,5.0,1.915
18.0,8.0,1.916
11.0,11.0,1.917
-8.0,14.0,1.918
-1.0,11.0,1.919
28.0,-4.0,1.92
55.0,-29.0,1.921
71.0,-36.0,1.922
82.0,-12.0,1.923
71.0,24.0,1.924
23.0,43.0,1.925
-35.0,34.0,1.926
-51.0,11.0,1.927
-25.0,-10.0,1.928
-7.0,-24.0,1.929
-26.0,-33.0,1.93
-47.0,-39.0,1.931
-38.0,-39.0,1.932
-13.0,-32.0,1.933
-6.0,-19.0,1.934
-16.0,-9.0,1.935
-13.0,-6.0,1.936
10.0,0.0,1.937
30.0,8.0,1.938
34.0,14.0,1.939
35.0,15.0,1.94
25.0,12.0,1.941
16.0,16.0,1.942
7.0,21.0,1.943
0.0,16.0,1.944
-2.0,6.0,1.945
-2.0,-4.0,1.946
8.0,-10.0,1.947
16.0,-17.0,1.948
14.0,-18.0,1.949
9.0,-9.0,1.95
0.0,-1.0,1.951
-9.0,3.0,1.952
-13.0,4.0,1.953
-16.0,9.0,1.954
-14.0,14.0,1.955
-12.0,12.0,1.956
-7.0,7.0,1.957
-1.0,3.0,1.958
7.0,2.0,1.959
17.0,2.0,1.96
27.0,-1.0,1.961
34.0,-3.0,1.962
37.0,-2.0,1.963
30.0,-2.0,1.964
9.0,0.0,1.965
-9.0,5.0,1.966
-11.0,6.0,1.967
-4.0,3.0,1.968
-5.0,0.0,1.969
-14.0,0.0,1.97
-20.0,0.0,1.971
-17.0,-2.0,1.972
-14.0,-5.0,1.973
-15.0,-5.0,1.974
-18.0,-4.0,1.975
-14.0,-2.0,1.976
-1.0,3.0,1.977
12.0,6.0,1.978
17.0,4.0,1.979
14.0,2.0,1.98
3.0,1.0,1.981
-7.0,0.0,1.982
-13.0,-2.0,1.983
-11.0,-3.0,1.984
0.0,-1.0,1.985
11.0,1.0,1.986
19.0,2.0,1.987
21.0,2.0,1.988
22.0,-3.0,1.989
19.0,-8.0,1.99
13.0,-6.0,1.991
6.0,-4.0,1.992
3.0,0.0,1.993
2.0,2.0,1.994
0.0,-3.0,1.995
0.0,-7.0,1.996
4.0,-5.0,1.997
5.0,-2.0,1.998
5.0,0.0,1.999
2.0,0.0,2.0
2.0,-5.0,2.001
8.0,-6.0,2.002
17.0,-7.0,2.003
20.0,-6.0,2.004
17.0,-2.0,2.005
13.0,1.0,2.006
11.0,-2.0,2.007
8.0,-6.0,2.008
-4.0,-5.0,2.009
-20.0,1.0,2.01
-27.0,6.0,2.011
-20.0,5.0,2.012
-10.0,6.0,2.013
-7.0,7.0,2.014
-11.0,8.0,2.015
-9.0,6.0,2.016
-3.0,6.0,2.017
1.0,3.0,2.018
-2.0,2.0,2.019
-8.0,7.0,2.02
-11.0,15.0,2.021
-7.0,27.0,2.022
-1.0,27.0,2.023
5.0,12.0,2.024
8.0,-4.0,2.025
7.0,-8.0,2.026
5.0,6.0,2.027
4.0,22.0,2.028
7.0,24.0,2.029
8.0,7.0,2.03
6.0,-12.0,2.031
7.0,-25.0,2.032
8.0,-26.0,2.033
9.0,-21.0,2.034
4.0,-19.0,2.035
-5.0,-26.0,2.036
-10.0,-35.0,2.037
-9.0,-42.0,2.038
-5.0,-44.0,2.039
-5.0,-40.0,2.04
-9.0,-34.0,2.041
-9.0,-23.0,2.042
1.0,-10.0,2.043
19.0,-2.0,2.044
32.0,5.0,2.045
37.0,12.0,2.046
38.0,12.0,2.047
33.0,-2.0,2.048
21.0,-41.0,2.049
5.0,-91.0,2.05
-5.0,-104.0,2.051
-10.0,-49.0,2.052
-17.0,44.0,2.053
-25.0,108.0,2.054
-30.0,112.0,2.055
-30.0,95.0,2.056
-27.0,93.0,2.057
-22.0,95.0,2.058
-11.0,77.0,2.059
0.0,48.0,2.06
9.0,24.0,2.061
12.0,1.0,2.062
17.0,-28.0,2.063
18.0,-45.0,2.064
11.0,-31.0,2.065
1.0,-9.0,2.066
-1.0,-8.0,2.067
3.0,-21.0,2.068
3.0,-21.0,2.069
0.0,-9.0,2.07
1.0,-3.0,2.071
8.0,-6.0,2.072
12.0,-9.0,2.073
10.0,-10.0,2.074
10.0,-15.0,2.075
15.0,-15.0,2.076
20.0,-9.0,2.077
19.0,-5.0,2.078
15.0,-2.0,2.079
11.0,0.0,2.08
6.0,-1.0,2.081
5.0,-1.0,2.082
11.0,-4.0,2.083
16.0,-3.0,2.084
13.0,3.0,2.085
7.0,7.0,2.086
6.0,2.0,2.087
6.0,-2.0,2.088
2.0,1.0,2.089
-2.0,8.0,2.09
-1.0,9.0,2.091
0.0,3.0,2.092
0.0,1.0,2.093
0.0,0.0,2.094
4.0,-1.0,2.095
10.0,-5.0,2.096
11.0,-5.0,2.097
7.0,-4.0,2.098
9.0,-4.0,2.099
8.0,-5.0,2.1
1.0,-8.0,2.101
-3.0,-6.0,2.102
-1.0,-1.0,2.103
6.0,0.0,2.104
8.0,0.0,2.105
6.0,0.0,2.106
5.0,4.0,2.107
1.0,9.0,2.108
-8.0,11.0,2.109
-19.0,14.0,2.11
-18.0,14.0,2.111
-8.0,9.0,2.112
-5.0,4.0,2.113
-11.0,4.0,2.114
-19.0,5.0,2.115
-26.0,0.0,2.116
-29.0,-10.0,2.117
-29.0,-18.0,2.118
-18.0,-19.0,2.119
-8.0,-13.0,2.12
-5.0,-9.0,2.121
-8.0,-8.0,2.122
-3.0,-15.0,2.123
3.0,-32.0,2.124
1.0,-50.0,2.125
-7.0,-58.0,2.126
-9.0,-44.0,2.127
-7.0,-12.0,2.128
-16.0,24.0,2.129
-25.0,40.0,2.13
-12.0,27.0,2.131
25.0,-6.0,2.132
59.0,-24.0,2.133
70.0,0.0,2.134
71.0,43.0,2.135
78.0,63.0,2.136
80.0,51.0,2.137
58.0,25.0,2.138
23.0,14.0,2.139
-3.0,10.0,2.14
-9.0,-3.0,2.141
-5.0,-17.0,2.142
-3.0,-20.0,2.143
-1.0,-13.0,2.144
2.0,-11.0,2.145
3.0,-12.0,2.146
2.0,-8.0,2.147
-1.0,-3.0,2.148
-10.0,4.0,2.149
-24.0,10.0,2.15
-32.0,11.0,2.151
-25.0,11.0,2.152
-11.0,10.0,2.153
-4.0,6.0,2.154
-2.0,-11.0,2.155
3.0,-35.0,2.156
13.0,-40.0,2.157
16.0,-12.0,2.158
9.0,32.0,2.159
0.0,52.0,2.16
-9.0,33.0,2.161
-14.0,8.0,2.162
-8.0,2.0,2.163
9.0,8.0,2.164
16.0,6.0,2.165
8.0,-2.0,2.166
-2.0,-10.0,2.167
-1.0,-13.0,2.168
-1.0,-13.0,2.169
-7.0,-8.0,2.17
-12.0,-2.0,2.171
-5.0,0.0,2.172
3.0,-3.0,2.173
8.0,-7.0,2.174
6.0,-8.0,2.175
0.0,-7.0,2.176
-5.0,1.0,2.177
-5.0,10.0,2.178
3.0,17.0,2.179
10.0,12.0,2.18
8.0,-3.0,2.181
3.0,-13.0,2.182
7.0,-17.0,2.183
14.0,-17.0,2.184
16.0,-17.0,2.185
8.0,-16.0,2.186
5.0,-15.0,2.187
4.0,-14.0,2.188
1.0,-11.0,2.189
-3.0,-4.0,2.19
-2.0,0.0,2.191
0.0,0.0,2.192
2.0,-1.0,2.193
4.0,-1.0,2.194
10.0,-3.0,2.195
12.0,-9.0,2.196
14.0,-15.0,2.197
15.0,-15.0,2.198
16.0,-10.0,2.199
6.0,-13.0,2.2
-5.0,-37.0,2.201
-5.0,-62.0,2.202
3.0,-55.0,2.203
0.0,0.0,2.204
-24.0,63.0,2.205
-44.0,88.0,2.206
-42.0,75.0,2.207
-24.0,69.0,2.208
-12.0,74.0,2.209
-8.0,52.0,2.21
-4.0,-28.0,2.211
0.0,-134.0,2.212
0.0,-190.0,2.213
0.0,-143.0,2.214
0.0,-7.0,2.215
-2.0,129.0,2.216
-7.0,182.0,2.217
-15.0,158.0,2.218
-16.0,128.0,2.219
-7.0,98.0,2.22
12.0,68.0,2.221
37.0,24.0,2.222
57.0,-64.0,2.223
60.0,-130.0,2.224
48.0,-130.0,2.225
29.0,-114.0,2.226
15.0,-55.0,2.227
9.0,-3.0,2.228
6.0,25.0,2.229
3.0,48.0,2.23
7.0,52.0,2.231
23.0,51.0,2.232
36.0,37.0,2.233
27.0,24.0,2.234
-3.0,17.0,2.235
-33.0,9.0,2.236
-41.0,0.0,2.237
-29.0,-11.0,2.238
-12.0,-19.0,2.239
-5.0,-14.0,2.24
-1.0,-19.0,2.241
9.0,-30.0,2.242
26.0,-33.0,2.243
38.0,-27.0,2.244
38.0,-21.0,2.245
22.0,-16.0,2.246
-2.0,-10.0,2.247
-23.0,-11.0,2.248
-32.0,-18.0,2.249
-25.0,-21.0,2.25
-13.0,-11.0,2.251
-14.0,0.0,2.252
-22.0,1.0,2.253
-19.0,-4.0,2.254
-2.0,-10.0,2.255
7.0,-14.0,2.256
2.0,-12.0,2.257
-8.0,4.0,2.258
-8.0,27.0,2.259
0.0,31.0,2.26
15.0,16.0,2.261
36.0,5.0,2.262
56.0,5.0,2.263
58.0,6.0,2.264
40.0,1.0,2.265
19.0,-2.0,2.266
1.0,-5.0,2.267
-12.0,-11.0,2.268
-24.0,-16.0,2.269
-24.0,-10.0,2.27
-10.0,1.0,2.271
4.0,5.0,2.272
6.0,1.0,2.273
0.0,4.0,2.274
-8.0,12.0,2.275
-17.0,12.0,2.276
-19.0,8.0,2.277
-15.0,3.0,2.278
-6.0,4.0,2.279
-2.0,6.0,2.28
-1.0,0.0,2.281
10.0,-3.0,2.282
32.0,-1.0,2.283
44.0,3.0,2.284
29.0,5.0,2.285
0.0,4.0,2.286
-19.0,0.0,2.287
-25.0,-5.0,2.288
-36.0,-7.0,2.289
-52.0,-6.0,2.29
-56.0,-3.0,2.291
-35.0,1.0,2.292
-6.0,5.0,2.293
17.0,0.0,2.294
34.0,-22.0,2.295
45.0,-57.0,2.296
42.0,-82.0,2.297
24.0,-76.0,2.298
1.0,-38.0,2.299
-14.0,8.0,2.3
-21.0,32.0,2.301
-25.0,40.0,2.302
-18.0,45.0,2.303
2.0,52.0,2.304
20.0,56.0,2.305
23.0,56.0,2.306
26.0,48.0,2.307
41.0,29.0,2.308
55.0,-6.0,2.309
47.0,-33.0,2.31
17.0,-23.0,2.311
-9.0,19.0,2.312
-17.0,56.0,2.313
-16.0,58.0,2.314
-13.0,35.0,2.315
0.0,11.0,2.316
25.0,-3.0,2.317
46.0,-19.0,2.318
39.0,-29.0,2.319
10.0,-29.0,2.32
-18.0,-25.0,2.321
-24.0,-23.0,2.322
-24.0,-22.0,2.323
-31.0,-16.0,2.324
-35.0,-10.0,2.325
-22.0,-11.0,2.326
4.0,-16.0,2.327
19.0,-23.0,2.328
12.0,-36.0,2.329
-1.0,-60.0,2.33
5.0,-87.0,2.331
20.0,-91.0,2.332
16.0,-60.0,2.333
-16.0,-5.0,2.334
-53.0,48.0,2.335
-74.0,85.0,2.336
-77.0,98.0,2.337
-71.0,89.0,2.338
-52.0,59.0,2.339
-13.0,19.0,2.34
36.0,-22.0,2.341
66.0,-56.0,2.342
69.0,-72.0,2.343
57.0,-53.0,2.344
46.0,-1.0,2.345
33.0,48.0,2.346
19.0,66.0,2.347
11.0,61.0,2.348
13.0,58.0,2.349
17.0,53.0,2.35
13.0,31.0,2.351
4.0,3.0,2.352
1.0,-7.0,2.353
1.0,-3.0,2.354
1.0,-3.0,2.355
1.0,-18.0,2.356
7.0,-38.0,2.357
7.0,-65.0,2.358
1.0,-97.0,2.359
-8.0,-119.0,2.36
-13.0,-114.0,2.361
-11.0,-83.0,2.362
-1.0,-46.0,2.363
12.0,-11.0,2.364
17.0,32.0,2.365
10.0,74.0,2.366
4.0,92.0,2.367
13.0,91.0,2.368
24.0,91.0,2.369
26.0,99.0,2.37
21.0,99.0,2.371
19.0,84.0,2.372
18.0,65.0,2.373
12.0,45.0,2.374
2.0,26.0,2.375
2.0,5.0,2.376
7.0,-6.0,2.377
10.0,-14.0,2.378
11.0,-24.0,2.379
12.0,-33.0,2.38
16.0,-41.0,2.381
19.0,-44.0,2.382
20.0,-45.0,2.383
18.0,-44.0,2.384
4.0,-42.0,2.385
-14.0,-39.0,2.386
-48.0,-40.0,2.387
-71.0,-38.0,2.388
-56.0,-31.0,2.389
-47.0,-30.0,2.39
-55.0,-40.0,2.391
-55.0,-48.0,2.392
-25.0,-38.0,2.393
1.0,-11.0,2.394
18.0,19.0,2.395
30.0,36.0,2.396
20.0,43.0,2.397
13.0,41.0,2.398
6.0,34.0,2.399
-2.0,26.0,2.4
8.0,14.0,2.401
34.0,4.0,2.402
38.0,6.0,2.403
9.0,3.0,2.404
-20.0,-14.0,2.405
-12.0,-28.0,2.406
12.0,-30.0,2.407
16.0,-26.0,2.408
-6.0,3.0,2.409
-21.0,26.0,2.41
-21.0,26.0,2.411
-16.0,25.0,2.412
-12.0,16.0,2.413
-7.0,5.0,2.414
2.0,-8.0,2.415
6.0,-21.0,2.416
9.0,-28.0,2.417
7.0,-33.0,2.418
2.0,-29.0,2.419
-13.0,-18.0,2.42
-20.0,1.0,2.421
2.0,30.0,2.422
45.0,49.0,2.423
71.0,51.0,2.424
59.0,41.0,2.425
33.0,32.0,2.426
22.0,20.0,2.427
22.0,6.0,2.428
16.0,-7.0,2.429
4.0,-13.0,2.43
3.0,-14.0,2.431
12.0,-16.0,2.432
13.0,-24.0,2.433
-2.0,-44.0,2.434
-17.0,-69.0,2.435
-15.0,-77.0,2.436
0.0,-55.0,2.437
19.0,-11.0,2.438
32.0,32.0,2.439
35.0,57.0,2.44
25.0,61.0,2.441
1.0,60.0,2.442
-23.0,49.0,2.443
-42.0,32.0,2.444
-61.0,19.0,2.445
-79.0,15.0,2.446
-77.0,10.0,2.447
-48.0,-4.0,2.448
-8.0,-16.0,2.449
18.0,-19.0,2.45
22.0,-24.0,2.451
21.0,-34.0,2.452
26.0,-33.0,2.453
37.0,-17.0,2.454
42.0,1.0,2.455
33.0,11.0,2.456
23.0,14.0,2.457
23.0,15.0,2.458
41.0,15.0,2.459
60.0,9.0,2.46
54.0,1.0,2.461
24.0,0.0,2.462
-2.0,-1.0,2.463
-8.0,-4.0,2.464
-10.0,-8.0,2.465
-27.0,-11.0,2.466
-49.0,-15.0,2.467
-52.0,-15.0,2.468
-35.0,-10.0,2.469
-22.0,-7.0,2.47
-25.0,-7.0,2.471
-34.0,-4.0,2.472
-35.0,3.0,2.473
-29.0,7.0,2.474
-20.0,4.0,2.475
-1.0,0.0,2.476
30.0,0.0,2.477
60.0,-1.0,2.478
75.0,-7.0,2.479
71.0,-14.0,2.48
59.0,-12.0,2.481
38.0,-4.0,2.482
3.0,-1.0,2.483
-23.0,0.0,2.484
-28.0,5.0,2.485
-27.0,11.0,2.486
-46.0,11.0,2.487
-70.0,5.0,2.488
-65.0,4.0,2.489
-34.0,7.0,2.49
-9.0,10.0,2.491
-5.0,8.0,2.492
-1.0,4.0,2.493
10.0,3.0,2.494
14.0,4.0,2.495
4.0,4.0,2.496
-4.0,7.0,2.497
-2.0,3.0,2.498
3.0,0.0,2.499
-1.0,1.0,2.5
-10.0,4.0,2.501
-12.0,3.0,2.502
9.0,-7.0,2.503
47.0,-16.0,2.504
73.0,-13.0,2.505
68.0,-4.0,2.506
45.0,-2.0,2.507
30.0,-9.0,2.508
28.0,-15.0,2.509
26.0,-15.0,2.51
14.0,-9.0,2.511
1.0,-1.0,2.512
-3.0,2.0,2.513
1.0,-1.0,2.514
10.0,-8.0,2.515
21.0,-9.0,2.516
23.0,-3.0,2.517
9.0,7.0,2.518
-7.0,14.0,2.519
-12.0,17.0,2.52
-6.0,9.0,2.521
-4.0,-2.0,2.522
-8.0,-7.0,2.523
-9.0,-1.0,2.524
-10.0,10.0,2.525
-16.0,15.0,2.526
-20.0,13.0,2.527
-17.0,10.0,2.528
-5.0,10.0,2.529
5.0,11.0,2.53
12.0,7.0,2.531
10.0,2.0,2.532
5.0,3.0,2.533
7.0,8.0,2.534
21.0,11.0,2.535
26.0,12.0,2.536
7.0,11.0,2.537
-25.0,8.0,2.538
-34.0,6.0,2.539
-24.0,4.0,2.54
-30.0,-4.0,2.541
-47.0,-13.0,2.542
-33.0,-24.0,2.543
15.0,-25.0,2.544
41.0,-16.0,2.545
16.0,-8.0,2.546
-13.0,-7.0,2.547
-8.0,-12.0,2.548
11.0,-14.0,2.549
5.0,-10.0,2.55
-7.0,-2.0,2.551
-1.0,4.0,2.552
11.0,7.0,2.553
10.0,6.0,2.554
4.0,5.0,2.555
3.0,9.0,2.556
-6.0,10.0,2.557
-31.0,0.0,2.558
-40.0,-16.0,2.559
-12.0,-25.0,2.56
28.0,-23.0,2.561
34.0,-13.0,2.562
13.0,-5.0,2.563
7.0,-1.0,2.564
21.0,2.0,2.565
28.0,-1.0,2.566
10.0,-8.0,2.567
-13.0,-16.0,2.568
-15.0,-13.0,2.569
-2.0,-2.0,2.57
7.0,10.0,2.571
8.0,15.0,2.572
8.0,15.0,2.573
13.0,14.0,2.574
15.0,14.0,2.575
11.0,15.0,2.576
8.0,18.0,2.577
18.0,18.0,2.578
30.0,18.0,2.579
32.0,14.0,2.58
22.0,3.0,2.581
16.0,-10.0,2.582
23.0,-24.0,2.583
31.0,-34.0,2.584
27.0,-37.0,2.585
14.0,-32.0,2.586
1.0,-20.0,2.587
-13.0,-8.0,2.588
-28.0,0.0,2.589
-35.0,3.0,2.59
-28.0,4.0,2.591
-20.0,7.0,2.592
-21.0,13.0,2.593
-20.0,19.0,2.594
-10.0,18.0,2.595
1.0,12.0,2.596
5.0,9.0,2.597
5.0,4.0,2.598
9.0,1.0,2.599
5.0,0.0,2.6
-6.0,-3.0,2.601
-15.0,-3.0,2.602
-12.0,-5.0,2.603
-5.0,-5.0,2.604
-3.0,-3.0,2.605
-1.0,-1.0,2.606
14.0,-1.0,2.607
32.0,-3.0,2.608
36.0,0.0,2.609
22.0,6.0,2.61
5.0,8.0,2.611
-1.0,3.0,2.612
-4.0,0.0,2.613
-7.0,3.0,2.614
-9.0,9.0,2.615
-8.0,8.0,2.616
0.0,6.0,2.617
7.0,2.0,2.618
15.0,-1.0,2.619
20.0,-5.0,2.62
16.0,-7.0,2.621
11.0,-1.0,2.622
5.0,4.0,2.623
-2.0,2.0,2.624
-15.0,-4.0,2.625
-25.0,-8.0,2.626
-22.0,-8.0,2.627
-16.0,-6.0,2.628
-2.0,-2.0,2.629
9.0,3.0,2.63
13.0,3.0,2.631
16.0,0.0,2.632
11.0,1.0,2.633
9.0,6.0,2.634
17.0,5.0,2.635
18.0,-3.0,2.636
-2.0,-8.0,2.637
-20.0,-10.0,2.638
-30.0,-8.0,2.639
-35.0,-8.0,2.64
-42.0,-13.0,2.641
-39.0,-16.0,2.642
-13.0,-8.0,2.643
19.0,-1.0,2.644
30.0,0.0,2.645
26.0,2.0,2.646
32.0,3.0,2.647
56.0,4.0,2.648
76.0,4.0,2.649
68.0,3.0,2.65
32.0,3.0,2.651
-13.0,4.0,2.652
-41.0,2.0,2.653
-38.0,1.0,2.654
-14.0,2.0,2.655
5.0,4.0,2.656
13.0,7.0,2.657
18.0,9.0,2.658
22.0,4.0,2.659
11.0,1.0,2.66
-6.0,-6.0,2.661
-2.0,-17.0,2.662
30.0,-25.0,2.663
52.0,-19.0,2.664
39.0,-2.0,2.665
12.0,9.0,2.666
-6.0,3.0,2.667
-26.0,-5.0,2.668
-66.0,-5.0,2.669
-100.0,0.0,2.67
-89.0,-3.0,2.671
-40.0,-8.0,2.672
0.0,-3.0,2.673
16.0,7.0,2.674
20.0,8.0,2.675
25.0,3.0,2.676
29.0,2.0,2.677
31.0,9.0,2.678
36.0,13.0,2.679
39.0,7.0,2.68
28.0,-4.0,2.681
11.0,-7.0,2.682
6.0,-3.0,2.683
14.0,3.0,2.684
11.0,9.0,2.685
-7.0,12.0,2.686
-21.0,9.0,2.687
-19.0,0.0,2.688
-13.0,-8.0,2.689
-14.0,-11.0,2.69
-18.0,-15.0,2.691
-16.0,-17.0,2.692
-7.0,-13.0,2.693
0.0,-3.0,2.694
6.0,2.0,2.695
8.0,0.0,2.696
5.0,-4.0,2.697
0.0,-4.0,2.698
-4.0,1.0,2.699
-5.0,3.0,2.7
-4.0,0.0,2.701
-1.0,5.0,2.702
8.0,15.0,2.703
18.0,24.0,2.704
21.0,22.0,2.705
21.0,13.0,2.706
21.0,3.0,2.707
20.0,-1.0,2.708
12.0,3.0,2.709
0.0,7.0,2.71
-1.0,1.0,2.711
7.0,-6.0,2.712
13.0,-5.0,2.713
9.0,2.0,2.714
-1.0,2.0,2.715
-2.0,-7.0,2.716
5.0,-10.0,2.717
9.0,-7.0,2.718
9.0,-3.0,2.719
9.0,-4.0,2.72
9.0,-9.0,2.721
10.0,-8.0,2.722
14.0,-4.0,2.723
17.0,-2.0,2.724
14.0,0.0,2.725
10.0,0.0,2.726
4.0,-2.0,2.727
-1.0,-7.0,2.728
-8.0,-9.0,2.729
-15.0,-6.0,2.73
-21.0,-4.0,2.731
-25.0,-4.0,2.732
-18.0,0.0,2.733
-12.0,6.0,2.734
-13.0,9.0,2.735
-13.0,9.0,2.736
-3.0,8.0,2.737
5.0,6.0,2.738
-1.0,5.0,2.739
-5.0,0.0,2.74
1.0,-6.0,2.741
12.0,-11.0,2.742
18.0,-12.0,2.743
17.0,-10.0,2.744
15.0,-8.0,2.745
8.0,-6.0,2.746
1.0,-10.0,2.747
1.0,-20.0,2.748
6.0,-42.0,2.749
4.0,-68.0,2.75
-8.0,-82.0,2.751
-17.0,-73.0,2.752
-19.0,-46.0,2.753
-20.0,-17.0,2.754
-24.0,2.0,2.755
-23.0,5.0,2.756
-8.0,-5.0,2.757
9.0,-23.0,2.758
14.0,-31.0,2.759
8.0,-21.0,2.76
6.0,0.0,2.761
15.0,42.0,2.762
30.0,105.0,2.763
45.0,173.0,2.764
52.0,214.0,2.765
50.0,213.0,2.766
43.0,183.0,2.767
34.0,144.0,2.768
25.0,102.0,2.769
16.0,60.0,2.77
7.0,24.0,2.771
4.0,-3.0,2.772
10.0,-30.0,2.773
18.0,-51.0,2.774
21.0,-60.0,2.775
18.0,-59.0,2.776
16.0,-58.0,2.777
11.0,-66.0,2.778
-5.0,-72.0,2.779
-39.0,-73.0,2.78
-76.0,-89.0,2.781
-95.0,-141.0,2.782
-87.0,-252.0,2.783
-70.0,-416.0,2.784
-58.0,-563.0,2.785
-55.0,-595.0,2.786
-47.0,-466.0,2.787
-33.0,-245.0,2.788
-21.0,-29.0,2.789
-12.0,153.0,2.79
2.0,317.0,2.791
20.0,452.0,2.792
35.0,522.0,2.793
39.0,534.0,2.794
37.0,528.0,2.795
43.0,512.0,2.796
56.0,466.0,2.797
68.0,384.0,2.798
71.0,296.0,2.799
64.0,213.0,2.8
57.0,121.0,2.801
54.0,25.0,2.802
58.0,-45.0,2.803
62.0,-85.0,2.804
58.0,-113.0,2.805
45.0,-135.0,2.806
21.0,-147.0,2.807
-12.0,-156.0,2.808
-48.0,-175.0,2.809
-79.0,-212.0,2.81
-99.0,-284.0,2.811
-106.0,-416.0,2.812
-104.0,-587.0,2.813
-96.0,-709.0,2.814
-80.0,-703.0,2.815
-58.0,-578.0,2.816
-38.0,-415.0,2.817
-25.0,-220.0,2.818
-16.0,21.0,2.819
-5.0,290.0,2.82
8.0,512.0,2.821
20.0,639.0,2.822
33.0,676.0,2.823
43.0,650.0,2.824
46.0,571.0,2.825
40.0,458.0,2.826
36.0,349.0,2.827
38.0,265.0,2.828
39.0,194.0,2.829
33.0,119.0,2.83
29.0,43.0,2.831
33.0,-18.0,2.832
36.0,-58.0,2.833
29.0,-81.0,2.834
20.0,-93.0,2.835
17.0,-109.0,2.836
19.0,-134.0,2.837
19.0,-162.0,2.838
18.0,-181.0,2.839
19.0,-189.0,2.84
23.0,-196.0,2.841
25.0,-193.0,2.842
24.0,-178.0,2.843
23.0,-157.0,2.844
21.0,-140.0,2.845
13.0,-127.0,2.846
4.0,-115.0,2.847
0.0,-102.0,2.848
-1.0,-87.0,2.849
-3.0,-68.0,2.85
-9.0,-51.0,2.851
-15.0,-42.0,2.852
-22.0,-37.0,2.853
-27.0,-26.0,2.854
-25.0,-12.0,2.855
-18.0,-4.0,2.856
-7.0,0.0,2.857
-2.0,4.0,2.858
0.0,9.0,2.859
0.0,9.0,2.86
-6.0,4.0,2.861
-10.0,6.0,2.862
-1.0,13.0,2.863
6.0,18.0,2.864
6.0,19.0,2.865
5.0,23.0,2.866
-4.0,27.0,2.867
-16.0,31.0,2.868
-33.0,32.0,2.869
-46.0,30.0,2.87
-41.0,31.0,2.871
-29.0,35.0,2.872
2.0,40.0,2.873
27.0,42.0,2.874
33.0,38.0,2.875
35.0,31.0,2.876
21.0,25.0,2.877
9.0,20.0,2.878
6.0,18.0,2.879
8.0,17.0,2.88
8.0,18.0,2.881
5.0,17.0,2.882
2.0,11.0,2.883
4.0,7.0,2.884
9.0,9.0,2.885
10.0,11.0,2.886
4.0,12.0,2.887
-1.0,13.0,2.888
-5.0,12.0,2.889
-9.0,11.0,2.89
-17.0,12.0,2.891
-27.0,12.0,2.892
-37.0,10.0,2.893
-39.0,7.0,2.894
-29.0,4.0,2.895
-13.0,0.0,2.896
3.0,-4.0,2.897
11.0,-7.0,2.898
18.0,-2.0,2.899
31.0,0.0,2.9
43.0,-4.0,2.901
43.0,-8.0,2.902
38.0,-8.0,2.903
43.0,-7.0,2.904
44.0,-3.0,2.905
27.0,1.0,2.906
-6.0,1.0,2.907
-20.0,0.0,2.908
-5.0,1.0,2.909
10.0,4.0,2.91
0.0,6.0,2.911
-25.0,7.0,2.912
-36.0,12.0,2.913
-30.0,16.0,2.914
-20.0,15.0,2.915
-20.0,11.0,2.916
-18.0,11.0,2.917
3.0,11.0,2.918
52.0,9.0,2.919
103.0,0.0,2.92
127.0,-11.0,2.921
112.0,-20.0,2.922
85.0,-25.0,2.923
58.0,-21.0,2.924
21.0,-14.0,2.925
-27.0,-8.0,2.926
-54.0,-7.0,2.927
-46.0,-12.0,2.928
-40.0,-13.0,2.929
-67.0,-8.0,2.93
-102.0,-2.0,2.931
-93.0,1.0,2.932
-49.0,4.0,2.933
-23.0,7.0,2.934
-32.0,12.0,2.935
-41.0,17.0,2.936
-29.0,22.0,2.937
-20.0,20.0,2.938
-33.0,12.0,2.939
-51.0,0.0,2.94
-46.0,-9.0,2.941
-20.0,-13.0,2.942
12.0,-15.0,2.943
44.0,-23.0,2.944
82.0,-34.0,2.945
121.0,-46.0,2.946
139.0,-50.0,2.947
115.0,-34.0,2.948
51.0,-1.0,2.949
-5.0,26.0,2.95
-11.0,27.0,2.951
19.0,12.0,2.952
29.0,9.0,2.953
6.0,23.0,2.954
-11.0,37.0,2.955
-3.0,39.0,2.956
-1.0,34.0,2.957
-33.0,26.0,2.958
-67.0,19.0,2.959
-67.0,13.0,2.96
-50.0,7.0,2.961
-53.0,2.0,2.962
-64.0,-7.0,2.963
-57.0,-15.0,2.964
-30.0,-15.0,2.965
-7.0,-7.0,2.966
7.0,-5.0,2.967
22.0,-18.0,2.968
30.0,-38.0,2.969
29.0,-50.0,2.97
31.0,-47.0,2.971
45.0,-38.0,2.972
56.0,-29.0,2.973
49.0,-18.0,2.974
39.0,-2.0,2.975
39.0,14.0,2.976
42.0,24.0,2.977
36.0,27.0,2.978
22.0,29.0,2.979
8.0,33.0,2.98
-5.0,31.0,2.981
-18.0,24.0,2.982
-21.0,11.0,2.983
-16.0,1.0,2.984
-14.0,0.0,2.985
-21.0,5.0,2.986
-21.0,4.0,2.987
-8.0,-3.0,2.988
0.0,-7.0,2.989
-7.0,-6.0,2.99
-16.0,-1.0,2.991
-11.0,-2.0,2.992
0.0,-1.0,2.993
4.0,2.0,2.994
4.0,5.0,2.995
9.0,1.0,2.996
17.0,-6.0,2.997
20.0,-14.0,2.998
21.0,-16.0,2.999
22.0,-11.0,3.0
23.0,-7.0,3.001
25.0,-2.0,3.002
33.0,0.0,3.003
39.0,4.0,3.004
37.0,9.0,3.005
25.0,8.0,3.006
12.0,2.0,3.007
0.0,-4.0,3.008
-8.0,-3.0,3.009
-16.0,1.0,3.01
-19.0,4.0,3.011
-28.0,4.0,3.012
-43.0,5.0,3.013
-59.0,5.0,3.014
-65.0,0.0,3.015
-59.0,-6.0,3.016
-38.0,-4.0,3.017
-4.0,0.0,3.018
35.0,0.0,3.019
54.0,-5.0,3.02
48.0,-11.0,3.021
33.0,-12.0,3.022
22.0,-14.0,3.023
10.0,-19.0,3.024
-10.0,-19.0,3.025
-24.0,-12.0,3.026
-24.0,0.0,3.027
-20.0,12.0,3.028
-22.0,16.0,3.029
-22.0,8.0,3.03
-8.0,-2.0,3.031
9.0,0.0,3.032
13.0,17.0,3.033
8.0,28.0,3.034
14.0,16.0,3.035
24.0,-5.0,3.036
27.0,-12.0,3.037
23.0,-8.0,3.038
27.0,-3.0,3.039
34.0,-5.0,3.04
30.0,-13.0,3.041
19.0,-20.0,3.042
17.0,-18.0,3.043
28.0,-3.0,3.044
31.0,19.0,3.045
19.0,28.0,3.046
5.0,18.0,3.047
-1.0,6.0,3.048
-8.0,7.0,3.049
-29.0,13.0,3.05
-53.0,11.0,3.051
-61.0,3.0,3.052
-48.0,0.0,3.053
-27.0,2.0,3.054
-13.0,0.0,3.055
-6.0,-3.0,3.056
0.0,-2.0,3.057
13.0,-4.0,3.058
28.0,-10.0,3.059
33.0,-16.0,3.06
28.0,-19.0,3.061
25.0,-14.0,3.062
26.0,-8.0,3.063
19.0,-4.0,3.064
-3.0,0.0,3.065
-22.0,-1.0,3.066
-21.0,-10.0,3.067
-10.0,-17.0,3.068
-7.0,-8.0,3.069
-11.0,16.0,3.07
-9.0,39.0,3.071
-2.0,36.0,3.072
5.0,9.0,3.073
16.0,-13.0,3.074
29.0,-11.0,3.075
35.0,7.0,3.076
27.0,14.0,3.077
11.0,0.0,3.078
6.0,-17.0,3.079
5.0,-19.0,3.08
-5.0,-15.0,3.081
-20.0,-19.0,3.082
-17.0,-30.0,3.083
16.0,-30.0,3.084
54.0,-14.0,3.085
72.0,3.0,3.086
65.0,6.0,3.087
51.0,6.0,3.088
41.0,12.0,3.089
35.0,18.0,3.09
24.0,17.0,3.091
6.0,12.0,3.092
-18.0,10.0,3.093
-34.0,4.0,3.094
-39.0,-10.0,3.095
-50.0,-15.0,3.096
-73.0,-1.0,3.097
29.0,17.0,3.098
-42.0,12.0,3.099
-101.0,-9.0,3.1
-112.0,-11.0,3.101
-120.0,21.0,3.102
-105.0,41.0,3.103
-90.0,15.0,3.104
-76.0,-34.0,3.105
-63.0,-62.0,3.106
-51.0,-55.0,3.107
-41.0,-42.0,3.108
-33.0,-36.0,3.109
-23.0,-28.0,3.11
-2.0,-10.0,3.111
14.0,13.0,3.112
18.0,34.0,3.113
29.0,40.0,3.114
52.0,25.0,3.115
71.0,10.0,3.116
77.0,23.0,3.117
11.0,44.0,3.118
-38.0,35.0,3.119
-78.0,19.0,3.12
-86.0,-17.0,3.121
-91.0,-39.0,3.122
-81.0,-14.0,3.123
-71.0,5.0,3.124
-61.0,7.0,3.125
-52.0,6.0,3.126
-44.0,-6.0,3.127
-37.0,-18.0,3.128
-32.0,-31.0,3.129
-24.0,-49.0,3.13
-10.0,-82.0,3.131
1.0,-109.0,3.132
4.0,-115.0,3.133
11.0,-106.0,3.134
27.0,-48.0,3.135
40.0,4.0,3.136
44.0,42.0,3.137
47.0,82.0,3.138
51.0,138.0,3.139
48.0,200.0,3.14
47.0,222.0,3.141
49.0,192.0,3.142
56.0,145.0,3.143
61.0,125.0,3.144
64.0,117.0,3.145
65.0,82.0,3.146
60.0,25.0,3.147
40.0,-10.0,3.148
8.0,-17.0,3.149
-24.0,-33.0,3.15
-41.0,-69.0,3.151
-30.0,-89.0,3.152
7.0,-72.0,3.153
51.0,-52.0,3.154
75.0,-59.0,3.155
85.0,-76.0,3.156
96.0,-76.0,3.157
102.0,-70.0,3.158
61.0,-70.0,3.159
-23.0,-66.0,3.16
-98.0,-54.0,3.161
-134.0,-40.0,3.162
-143.0,-40.0,3.163
-149.0,-48.0,3.164
-133.0,-50.0,3.165
-78.0,-43.0,3.166
-4.0,-34.0,3.167
42.0,-20.0,3.168
61.0,-2.0,3.169
84.0,14.0,3.17
122.0,18.0,3.171
145.0,3.0,3.172
128.0,-23.0,3.173
75.0,-29.0,3.174
5.0,10.0,3.175
-62.0,70.0,3.176
-98.0,94.0,3.177
-99.0,58.0,3.178
-83.0,18.0,3.179
-76.0,20.0,3.18
-71.0,39.0,3.181
-50.0,33.0,3.182
-18.0,16.0,3.183
-1.0,20.0,3.184
-2.0,20.0,3.185
-9.0,-34.0,3.186
-27.0,-116.0,3.187
-66.0,-148.0,3.188
-100.0,-104.0,3.189
-84.0,-43.0,3.19
-36.0,-11.0,3.191
-1.0,9.0,3.192
15.0,42.0,3.193
49.0,70.0,3.194
106.0,72.0,3.195
147.0,58.0,3.196
156.0,51.0,3.197
139.0,48.0,3.198
95.0,37.0,3.199
14.0,19.0,3.2
-72.0,11.0,3.201
-100.0,36.0,3.202
-68.0,76.0,3.203
-26.0,90.0,3.204
-9.0,56.0,3.205
23.0,12.0,3.206
86.0,2.0,3.207
139.0,15.0,3.208
138.0,5.0,3.209
104.0,-23.0,3.21
79.0,-34.0,3.211
68.0,-26.0,3.212
48.0,-41.0,3.213
11.0,-79.0,3.214
-18.0,-98.0,3.215
-13.0,-83.0,3.216
29.0,-66.0,3.217
88.0,-61.0,3.218
118.0,-41.0,3.219
86.0,1.0,3.22
-3.0,15.0,3.221
-108.0,-42.0,3.222
-205.0,-143.0,3.223
-290.0,-198.0,3.224
-336.0,-169.0,3.225
-293.0,-122.0,3.226
-153.0,-142.0,3.227
3.0,-230.0,3.228
91.0,-319.0,3.229
110.0,-356.0,3.23
102.0,-325.0,3.231
69.0,-199.0,3.232
-4.0,23.0,3.233
-74.0,261.0,3.234
-82.0,436.0,3.235
-53.0,546.0,3.236
-48.0,622.0,3.237
-67.0,644.0,3.238
-43.0,583.0,3.239
22.0,489.0,3.24
84.0,434.0,3.241
135.0,400.0,3.242
205.0,329.0,3.243
251.0,243.0,3.244
177.0,187.0,3.245
5.0,118.0,3.246
-125.0,-19.0,3.247
-140.0,-168.0,3.248
-128.0,-236.0,3.249
-173.0,-233.0,3.25
-216.0,-228.0,3.251
-165.0,-227.0,3.252
-68.0,-202.0,3.253
-28.0,-194.0,3.254
-45.0,-252.0,3.255
-29.0,-326.0,3.256
35.0,-333.0,3.257
85.0,-280.0,3.258
82.0,-248.0,3.259
62.0,-279.0,3.26
65.0,-331.0,3.261
59.0,-340.0,3.262
16.0,-278.0,3.263
-19.0,-137.0,3.264
12.0,49.0,3.265
98.0,196.0,3.266
162.0,254.0,3.267
165.0,272.0,3.268
141.0,305.0,3.269
136.0,307.0,3.27
153.0,202.0,3.271
171.0,39.0,3.272
193.0,-47.0,3.273
205.0,-16.0,3.274
166.0,36.0,3.275
54.0,32.0,3.276
-81.0,2.0,3.277
-176.0,0.0,3.278
-183.0,21.0,3.279
-109.0,23.0,3.28
4.0,-12.0,3.281
101.0,-50.0,3.282
139.0,-56.0,3.283
114.0,-35.0,3.284
49.0,-34.0,3.285
-44.0,-84.0,3.286
-163.0,-146.0,3.287
-274.0,-163.0,3.288
-316.0,-141.0,3.289
-260.0,-140.0,3.29
-148.0,-180.0,3.291
-52.0,-218.0,3.292
-11.0,-212.0,3.293
-13.0,-169.0,3.294
-26.0,-101.0,3.295
-31.0,-2.0,3.296
-21.0,98.0,3.297
4.0,168.0,3.298
41.0,201.0,3.299
74.0,223.0,3.3
85.0,242.0,3.301
76.0,230.0,3.302
63.0,168.0,3.303
60.0,63.0,3.304
52.0,-71.0,3.305
22.0,-202.0,3.306
-28.0,-254.0,3.307
-80.0,-176.0,3.308
-100.0,-31.0,3.309
-52.0,60.0,3.31
62.0,67.0,3.311
169.0,76.0,3.312
189.0,149.0,3.313
116.0,251.0,3.314
14.0,330.0,3.315
-56.0,384.0,3.316
-84.0,411.0,3.317
-80.0,375.0,3.318
-48.0,266.0,3.319
-14.0,120.0,3.32
-10.0,-26.0,3.321
-46.0,-151.0,3.322
-79.0,-216.0,3.323
-57.0,-182.0,3.324
11.0,-82.0,3.325
58.0,-14.0,3.326
37.0,-4.0,3.327
-13.0,9.0,3.328
-39.0,52.0,3.329
-26.0,48.0,3.33
5.0,-50.0,3.331
41.0,-171.0,3.332
53.0,-218.0,3.333
8.0,-191.0,3.334
-68.0,-146.0,3.335
-91.0,-106.0,3.336
-31.0,-73.0,3.337
44.0,-55.0,3.338
54.0,-47.0,3.339
30.0,-34.0,3.34
48.0,-17.0,3.341
84.0,-18.0,3.342
73.0,-40.0,3.343
39.0,-59.0,3.344
52.0,-62.0,3.345
90.0,-65.0,3.346
81.0,-72.0,3.347
41.0,-63.0,3.348
37.0,-31.0,3.349
57.0,8.0,3.35
32.0,33.0,3.351
-36.0,37.0,3.352
-68.0,30.0,3.353
-51.0,25.0,3.354
-43.0,23.0,3.355
-71.0,-3.0,3.356
-95.0,-61.0,3.357
-96.0,-141.0,3.358
-80.0,-201.0,3.359
-54.0,-219.0,3.36
-12.0,-192.0,3.361
31.0,-108.0,3.362
64.0,11.0,3.363
107.0,107.0,3.364
178.0,143.0,3.365
242.0,154.0,3.366
243.0,177.0,3.367
174.0,195.0,3.368
67.0,183.0,3.369
-57.0,169.0,3.37
-197.0,181.0,3.371
-315.0,177.0,3.372
-349.0,121.0,3.373
-281.0,51.0,3.374
-176.0,9.0,3.375
-105.0,-41.0,3.376
-66.0,-127.0,3.377
-13.0,-209.0,3.378
54.0,-206.0,3.379
94.0,-127.0,3.38
96.0,-56.0,3.381
98.0,-11.0,3.382
123.0,29.0,3.383
137.0,58.0,3.384
93.0,38.0,3.385
-9.0,-11.0,3.386
-127.0,-23.0,3.387
-203.0,20.0,3.388
-194.0,78.0,3.389
-109.0,120.0,3.39
-14.0,140.0,3.391
44.0,133.0,3.392
80.0,82.0,3.393
119.0,11.0,3.394
139.0,-16.0,3.395
108.0,32.0,3.396
67.0,101.0,3.397
63.0,124.0,3.398
88.0,93.0,3.399
84.0,55.0,3.4
49.0,39.0,3.401
31.0,27.0,3.402
47.0,-7.0,3.403
60.0,-53.0,3.404
43.0,-82.0,3.405
11.0,-89.0,3.406
-15.0,-78.0,3.407
-39.0,-58.0,3.408
-63.0,-49.0,3.409
-86.0,-71.0,3.41
-101.0,-113.0,3.411
-94.0,-131.0,3.412
-53.0,-106.0,3.413
5.0,-77.0,3.414
39.0,-81.0,3.415
46.0,-97.0,3.416
58.0,-89.0,3.417
92.0,-65.0,3.418
120.0,-53.0,3.419
106.0,-56.0,3.42
53.0,-49.0,3.421
-8.0,-25.0,3.422
-44.0,-13.0,3.423
-20.0,-21.0,3.424
58.0,-28.0,3.425
133.0,-10.0,3.426
133.0,26.0,3.427
64.0,59.0,3.428
-11.0,74.0,3.429
-68.0,76.0,3.43
-112.0,77.0,3.431
-141.0,72.0,3.432
-130.0,54.0,3.433
-88.0,34.0,3.434
-62.0,12.0,3.435
-76.0,-25.0,3.436
-96.0,-87.0,3.437
-84.0,-163.0,3.438
-45.0,-201.0,3.439
-11.0,-172.0,3.44
-2.0,-90.0,3.441
-15.0,27.0,3.442
-38.0,142.0,3.443
-68.0,196.0,3.444
-93.0,163.0,3.445
-79.0,107.0,3.446
3.0,110.0,3.447
130.0,159.0,3.448
234.0,140.0,3.449
270.0,-12.0,3.45
247.0,-216.0,3.451
184.0,-310.0,3.452
69.0,-221.0,3.453
-81.0,-28.0,3.454
-199.0,124.0,3.455
-221.0,183.0,3.456
-164.0,203.0,3.457
-85.0,229.0,3.458
-27.0,232.0,3.459
-5.0,181.0,3.46
-6.0,126.0,3.461
-4.0,132.0,3.462
33.0,169.0,3.463
95.0,176.0,3.464
130.0,140.0,3.465
120.0,91.0,3.466
101.0,23.0,3.467
96.0,-65.0,3.468
77.0,-138.0,3.469
36.0,-159.0,3.47
16.0,-152.0,3.471
26.0,-146.0,3.472
4.0,-137.0,3.473
-82.0,-129.0,3.474
-161.0,-175.0,3.475
-153.0,-312.0,3.476
-94.0,-455.0,3.477
-45.0,-485.0,3.478
-3.0,-339.0,3.479
65.0,-103.0,3.48
129.0,81.0,3.481
121.0,151.0,3.482
32.0,141.0,3.483
-83.0,121.0,3.484
-169.0,131.0,3.485
-175.0,166.0,3.486
-83.0,200.0,3.487
36.0,210.0,3.488
82.0,197.0,3.489
55.0,180.0,3.49
64.0,170.0,3.491
145.0,156.0,3.492
207.0,135.0,3.493
187.0,118.0,3.494
133.0,97.0,3.495
98.0,52.0,3.496
52.0,-7.0,3.497
-65.0,-55.0,3.498
-207.0,-80.0,3.499
-275.0,-111.0,3.5
-220.0,-162.0,3.501
-106.0,-219.0,3.502
-34.0,-286.0,3.503
-34.0,-364.0,3.504
-42.0,-386.0,3.505
-6.0,-276.0,3.506
24.0,-79.0,3.507
-11.0,67.0,3.508
-69.0,105.0,3.509
-53.0,108.0,3.51
34.0,136.0,3.511
101.0,146.0,3.512
112.0,106.0,3.513
116.0,72.0,3.514
130.0,97.0,3.515
120.0,137.0,3.516
93.0,136.0,3.517
80.0,116.0,3.518
65.0,122.0,3.519
26.0,134.0,3.52
-83.0,91.0,3.521
-170.0,4.0,3.522
-193.0,-66.0,3.523
-200.0,-99.0,3.524
-158.0,-137.0,3.525
-113.0,-204.0,3.526
-59.0,-264.0,3.527
-9.0,-277.0,3.528
27.0,-258.0,3.529
63.0,-242.0,3.53
96.0,-226.0,3.531
106.0,-183.0,3.532
40.0,-110.0,3.533
0.0,-20.0,3.534
40.0,88.0,3.535
76.0,212.0,3.536
102.0,318.0,3.537
130.0,382.0,3.538
124.0,420.0,3.539
46.0,434.0,3.54
-51.0,372.0,3.541
-94.0,310.0,3.542
-84.0,246.0,3.543
-69.0,176.0,3.544
-54.0,94.0,3.545
-24.0,12.0,3.546
10.0,-70.0,3.547
34.0,-131.0,3.548
59.0,-123.0,3.549
107.0,-116.0,3.55
161.0,-117.0,3.551
185.0,-114.0,3.552
150.0,-99.0,3.553
74.0,-89.0,3.554
6.0,-99.0,3.555
-20.0,-96.0,3.556
-33.0,-49.0,3.557
-88.0,-7.0,3.558
-163.0,8.0,3.559
-177.0,11.0,3.56
-114.0,3.0,3.561
-52.0,-14.0,3.562
-24.0,-35.0,3.563
26.0,-52.0,3.564
131.0,-69.0,3.565
214.0,-89.0,3.566
212.0,-111.0,3.567
167.0,-138.0,3.568
121.0,-165.0,3.569
19.0,-198.0,3.57
-180.0,-281.0,3.571
-369.0,-454.0,3.572
-385.0,-634.0,3.573
-222.0,-630.0,3.574
-37.0,-346.0,3.575
44.0,67.0,3.576
49.0,363.0,3.577
60.0,489.0,3.578
76.0,509.0,3.579
36.0,471.0,3.58
-55.0,371.0,3.581
-120.0,265.0,3.582
-125.0,238.0,3.583
-118.0,276.0,3.584
-111.0,286.0,3.585
-48.0,255.0,3.586
72.0,245.0,3.587
159.0,247.0,3.588
168.0,191.0,3.589
175.0,94.0,3.59
220.0,47.0,3.591
222.0,53.0,3.592
118.0,26.0,3.593
-10.0,-50.0,3.594
-51.0,-98.0,3.595
-35.0,-97.0,3.596
-51.0,-109.0,3.597
-100.0,-172.0,3.598
-108.0,-225.0,3.599
-85.0,-225.0,3.6
32.0,-220.0,3.601
132.0,-244.0,3.602
176.0,-262.0,3.603
192.0,-251.0,3.604
124.0,-277.0,3.605
50.0,-385.0,3.606
-43.0,-478.0,3.607
-125.0,-400.0,3.608
-169.0,-150.0,3.609
-195.0,98.0,3.61
-167.0,214.0,3.611
-120.0,238.0,3.612
-18.0,261.0,3.613
65.0,291.0,3.614
93.0,304.0,3.615
117.0,323.0,3.616
131.0,366.0,3.617
142.0,367.0,3.618
93.0,277.0,3.619
-12.0,186.0,3.62
-75.0,88.0,3.621
-73.0,4.0,3.622
-88.0,-40.0,3.623
-133.0,-85.0,3.624
-135.0,-129.0,3.625
-85.0,-161.0,3.626
-67.0,-157.0,3.627
-101.0,-173.0,3.628
-102.0,-249.0,3.629
-39.0,-300.0,3.63
23.0,-277.0,3.631
53.0,-237.0,3.632
88.0,-147.0,3.633
129.0,-69.0,3.634
124.0,-26.0,3.635
82.0,21.0,3.636
68.0,78.0,3.637
92.0,131.0,3.638
98.0,176.0,3.639
73.0,237.0,3.64
65.0,268.0,3.641
83.0,244.0,3.642
77.0,200.0,3.643
25.0,176.0,3.644
-37.0,151.0,3.645
-73.0,95.0,3.646
-67.0,30.0,3.647
-7.0,-20.0,3.648
87.0,-72.0,3.649
138.0,-122.0,3.65
98.0,-132.0,3.651
14.0,-109.0,3.652
-44.0,-128.0,3.653
-75.0,-220.0,3.654
-100.0,-321.0,3.655
-105.0,-365.0,3.656
-74.0,-347.0,3.657
-35.0,-271.0,3.658
-11.0,-121.0,3.659
16.0,66.0,3.66
53.0,190.0,3.661
39.0,216.0,3.662
-72.0,192.0,3.663
-202.0,150.0,3.664
-229.0,41.0,3.665
-133.0,-168.0,3.666
-3.0,-380.0,3.667
82.0,-408.0,3.668
114.0,-149.0,3.669
103.0,278.0,3.67
51.0,612.0,3.671
-10.0,692.0,3.672
-30.0,603.0,3.673
-5.0,520.0,3.674
24.0,475.0,3.675
32.0,394.0,3.676
38.0,275.0,3.677
40.0,166.0,3.678
19.0,94.0,3.679
5.0,22.0,3.68
15.0,-52.0,3.681
18.0,-93.0,3.682
-1.0,-121.0,3.683
-37.0,-192.0,3.684
-122.0,-288.0,3.685
-166.0,-340.0,3.686
-86.0,-328.0,3.687
-13.0,-301.0,3.688
34.0,-288.0,3.689
78.0,-259.0,3.69
110.0,-187.0,3.691
135.0,-106.0,3.692
136.0,-86.0,3.693
114.0,-149.0,3.694
22.0,-213.0,3.695
-43.0,-180.0,3.696
-23.0,-70.0,3.697
2.0,-16.0,3.698
35.0,-65.0,3.699
71.0,-104.0,3.7
96.0,-116.0,3.701
79.0,-98.0,3.702
34.0,10.0,3.703
13.0,119.0,3.704
13.0,232.0,3.705
-9.0,303.0,3.706
-77.0,248.0,3.707
-162.0,173.0,3.708
-211.0,35.0,3.709
-191.0,-87.0,3.71
-112.0,-166.0,3.711
-19.0,-208.0,3.712
57.0,-135.0,3.713
126.0,-55.0,3.714
174.0,43.0,3.715
149.0,129.0,3.716
40.0,176.0,3.717
-88.0,207.0,3.718
-131.0,182.0,3.719
-73.0,169.0,3.72
9.0,133.0,3.721
52.0,23.0,3.722
30.0,-116.0,3.723
-46.0,-166.0,3.724
-108.0,-121.0,3.725
-66.0,-106.0,3.726
61.0,-164.0,3.727
148.0,-190.0,3.728
126.0,-106.0,3.729
74.0,20.0,3.73
73.0,109.0,3.731
76.0,187.0,3.732
11.0,291.0,3.733
-83.0,371.0,3.734
-108.0,351.0,3.735
-43.0,223.0,3.736
38.0,46.0,3.737
88.0,-152.0,3.738
114.0,-271.0,3.739
153.0,-225.0,3.74
214.0,-69.0,3.741
256.0,51.0,3.742
230.0,72.0,3.743
120.0,62.0,3.744
-46.0,69.0,3.745
-194.0,31.0,3.746
-242.0,-85.0,3.747
-168.0,-197.0,3.748
-79.0,-226.0,3.749
-111.0,-197.0,3.75
-238.0,-159.0,3.751
-294.0,-111.0,3.752
-234.0,-62.0,3.753
-203.0,-78.0,3.754
-259.0,-188.0,3.755
-237.0,-317.0,3.756
-54.0,-371.0,3.757
144.0,-344.0,3.758
174.0,-287.0,3.759
109.0,-232.0,3.76
120.0,-152.0,3.761
159.0,-10.0,3.762
82.0,179.0,3.763
-50.0,371.0,3.764
-76.0,525.0,3.765
-5.0,627.0,3.766
44.0,676.0,3.767
55.0,658.0,3.768
95.0,590.0,3.769
129.0,518.0,3.77
97.0,447.0,3.771
40.0,329.0,3.772
32.0,177.0,3.773
44.0,96.0,3.774
26.0,116.0,3.775
27.0,104.0,3.776
91.0,-13.0,3.777
144.0,-157.0,3.778
89.0,-198.0,3.779
-19.0,-180.0,3.78
-43.0,-228.0,3.781
18.0,-319.0,3.782
56.0,-365.0,3.783
43.0,-381.0,3.784
33.0,-422.0,3.785
34.0,-436.0,3.786
20.0,-376.0,3.787
24.0,-313.0,3.788
83.0,-307.0,3.789
120.0,-276.0,3.79
44.0,-151.0,3.791
-89.0,-31.0,3.792
-170.0,-15.0,3.793
-198.0,-32.0,3.794
-239.0,3.0,3.795
-272.0,-1.0,3.796
-231.0,-123.0,3.797
-131.0,-276.0,3.798
-41.0,-276.0,3.799
29.0,-126.0,3.8
118.0,18.0,3.801
200.0,101.0,3.802
222.0,167.0,3.803
202.0,230.0,3.804
182.0,263.0,3.805
142.0,287.0,3.806
47.0,313.0,3.807
-64.0,291.0,3.808
-115.0,215.0,3.809
-88.0,184.0,3.81
-28.0,262.0,3.811
32.0,361.0,3.812
89.0,372.0,3.813
133.0,309.0,3.814
138.0,231.0,3.815
73.0,142.0,3.816
-51.0,48.0,3.817
-197.0,-27.0,3.818
-258.0,-71.0,3.819
-187.0,-161.0,3.82
-58.0,-354.0,3.821
24.0,-577.0,3.822
48.0,-726.0,3.823
57.0,-764.0,3.824
40.0,-706.0,3.825
-42.0,-540.0,3.826
-141.0,-262.0,3.827
-150.0,58.0,3.828
-54.0,284.0,3.829
37.0,344.0,3.83
36.0,301.0,3.831
-8.0,283.0,3.832
-16.0,340.0,3.833
17.0,425.0,3.834
59.0,481.0,3.835
114.0,508.0,3.836
181.0,512.0,3.837
182.0,463.0,3.838
77.0,357.0,3.839
-29.0,232.0,3.84
-140.0,114.0,3.841
-199.0,-4.0,3.842
-100.0,-125.0,3.843
-11.0,-214.0,3.844
46.0,-242.0,3.845
75.0,-222.0,3.846
21.0,-184.0,3.847
-5.0,-158.0,3.848
51.0,-165.0,3.849
86.0,-191.0,3.85
59.0,-188.0,3.851
42.0,-150.0,3.852
56.0,-142.0,3.853
53.0,-192.0,3.854
-3.0,-222.0,3.855
-41.0,-173.0,3.856
-22.0,-107.0,3.857
-11.0,-111.0,3.858
-35.0,-161.0,3.859
-29.0,-201.0,3.86
9.0,-213.0,3.861
24.0,-212.0,3.862
20.0,-174.0,3.863
48.0,-111.0,3.864
90.0,26.0,3.865
75.0,143.0,3.866
3.0,196.0,3.867
-63.0,234.0,3.868
-102.0,228.0,3.869
-129.0,217.0,3.87
-125.0,187.0,3.871
-69.0,160.0,3.872
0.0,142.0,3.873
27.0,117.0,3.874
42.0,70.0,3.875
93.0,21.0,3.876
160.0,-35.0,3.877
194.0,-86.0,3.878
173.0,-90.0,3.879
105.0,-45.0,3.88
4.0,-8.0,3.881
-92.0,-7.0,3.882
-119.0,-8.0,3.883
-73.0,15.0,3.884
-28.0,43.0,3.885
-38.0,49.0,3.886
-58.0,54.0,3.887
-32.0,63.0,3.888
26.0,24.0,3.889
61.0,-95.0,3.89
49.0,-217.0,3.891
6.0,-232.0,3.892
-37.0,-141.0,3.893
-60.0,-36.0,3.894
-83.0,35.0,3.895
-139.0,93.0,3.896
-199.0,143.0,3.897
-186.0,160.0,3.898
-71.0,144.0,3.899
42.0,137.0,3.9
61.0,156.0,3.901
30.0,177.0,3.902
59.0,176.0,3.903
134.0,156.0,3.904
154.0,113.0,3.905
95.0,37.0,3.906
24.0,-46.0,3.907
-20.0,-100.0,3.908
-60.0,-134.0,3.909
-101.0,-175.0,3.91
-100.0,-190.0,3.911
-47.0,-141.0,3.912
12.0,-87.0,3.913
49.0,-122.0,3.914
69.0,-228.0,3.915
79.0,-279.0,3.916
76.0,-223.0,3.917
62.0,-126.0,3.918
48.0,-63.0,3.919
25.0,-11.0,3.92
-20.0,78.0,3.921
-44.0,182.0,3.922
1.0,240.0,3.923
39.0,251.0,3.924
56.0,255.0,3.925
59.0,252.0,3.926
13.0,217.0,3.927
-14.0,154.0,3.928
15.0,92.0,3.929
36.0,41.0,3.93
31.0,-6.0,3.931
29.0,-40.0,3.932
38.0,-59.0,3.933
23.0,-77.0,3.934
-62.0,-101.0,3.935
-130.0,-108.0,3.936
-146.0,-77.0,3.937
-133.0,-34.0,3.938
-24.0,-24.0,3.939
55.0,-33.0,3.94
65.0,-105.0,3.941
54.0,-160.0,3.942
71.0,-164.0,3.943
95.0,-148.0,3.944
69.0,-73.0,3.945
6.0,-1.0,3.946
-27.0,57.0,3.947
-20.0,95.0,3.948
-10.0,67.0,3.949
-18.0,27.0,3.95
-33.0,-46.0,3.951
-50.0,-112.0,3.952
-68.0,-153.0,3.953
-64.0,-176.0,3.954
-20.0,-140.0,3.955
26.0,-84.0,3.956
33.0,32.0,3.957
15.0,134.0,3.958
15.0,162.0,3.959
26.0,188.0,3.96
14.0,256.0,3.961
-14.0,302.0,3.962
-22.0,226.0,3.963
-10.0,58.0,3.964
-4.0,-84.0,3.965
0.0,-156.0,3.966
16.0,-177.0,3.967
22.0,-144.0,3.968
0.0,-42.0,3.969
-16.0,71.0,3.97
17.0,128.0,3.971
73.0,152.0,3.972
84.0,180.0,3.973
38.0,176.0,3.974
-26.0,103.0,3.975
-62.0,25.0,3.976
-54.0,12.0,3.977
-8.0,28.0,3.978
45.0,-2.0,3.979
60.0,-51.0,3.98
39.0,-46.0,3.981
20.0,-2.0,3.982
16.0,-3.0,3.983
-2.0,-48.0,3.984
-41.0,-73.0,3.985
-63.0,-69.0,3.986
-42.0,-81.0,3.987
4.0,-108.0,3.988
44.0,-108.0,3.989
60.0,-85.0,3.99
47.0,-83.0,3.991
18.0,-102.0,3.992
-2.0,-108.0,3.993
-14.0,-90.0,3.994
-33.0,-66.0,3.995
-59.0,-55.0,3.996
-68.0,-61.0,3.997
-69.0,-92.0,3.998
-82.0,-145.0,3.999
-84.0,-205.0,4.0
-48.0,-254.0,4.001
-8.0,-263.0,4.002
37.0,-213.0,4.003
64.0,-104.0,4.004
29.0,26.0,4.005
3.0,125.0,4.006
8.0,164.0,4.007
12.0,138.0,4.008
12.0,88.0,4.009
23.0,94.0,4.01
65.0,203.0,4.011
95.0,351.0,4.012
81.0,424.0,4.013
69.0,399.0,4.014
61.0,354.0,4.015
51.0,330.0,4.016
35.0,298.0,4.017
14.0,240.0,4.018
-1.0,200.0,4.019
29.0,159.0,4.02
76.0,117.0,4.021
93.0,64.0,4.022
81.0,-21.0,4.023
51.0,-98.0,4.024
-10.0,-144.0,4.025
-102.0,-189.0,4.026
-161.0,-225.0,4.027
-138.0,-251.0,4.028
-77.0,-245.0,4.029
-63.0,-234.0,4.03
-94.0,-207.0,4.031
-96.0,-187.0,4.032
-49.0,-185.0,4.033
1.0,-179.0,4.034
37.0,-161.0,4.035
69.0,-140.0,4.036
91.0,-114.0,4.037
74.0,-86.0,4.038
35.0,-65.0,4.039
11.0,-69.0,4.04
2.0,-74.0,4.041
-15.0,-29.0,4.042
-20.0,45.0,4.043
4.0,90.0,4.044
30.0,100.0,4.045
17.0,122.0,4.046
-15.0,151.0,4.047
-21.0,118.0,4.048
-2.0,8.0,4.049
13.0,-108.0,4.05
21.0,-166.0,4.051
23.0,-160.0,4.052
1.0,-98.0,4.053
-47.0,2.0,4.054
-80.0,83.0,4.055
-68.0,81.0,4.056
-32.0,31.0,4.057
-1.0,8.0,4.058
18.0,33.0,4.059
36.0,57.0,4.06
48.0,60.0,4.061
41.0,85.0,4.062
21.0,116.0,4.063
-2.0,112.0,4.064
-29.0,90.0,4.065
-49.0,105.0,4.066
-56.0,142.0,4.067
-60.0,121.0,4.068
-74.0,39.0,4.069
-87.0,-32.0,4.07
-81.0,-47.0,4.071
-59.0,-18.0,4.072
-30.0,43.0,4.073
5.0,129.0,4.074
48.0,192.0,4.075
92.0,187.0,4.076
128.0,135.0,4.077
156.0,69.0,4.078
169.0,-4.0,4.079
168.0,-99.0,4.08
118.0,-187.0,4.081
66.0,-214.0,4.082
6.0,-188.0,4.083
-39.0,-147.0,4.084
-39.0,-101.0,4.085
-36.0,-49.0,4.086
-20.0,-22.0,4.087
-1.0,-49.0,4.088
21.0,-101.0,4.089
42.0,-134.0,4.09
54.0,-130.0,4.091
63.0,-94.0,4.092
63.0,-23.0,4.093
58.0,66.0,4.094
38.0,135.0,4.095
3.0,162.0,4.096
-74.0,154.0,4.097
-144.0,109.0,4.098
-150.0,26.0,4.099
-112.0,-67.0,4.1
-61.0,-189.0,4.101
-23.0,-279.0,4.102
-1.0,-273.0,4.103
30.0,-230.0,4.104
77.0,-73.0,4.105
95.0,48.0,4.106
38.0,62.0,4.107
-56.0,60.0,4.108
-106.0,6.0,4.109
-86.0,-14.0,4.11
-51.0,67.0,4.111
-35.0,152.0,4.112
-21.0,251.0,4.113
2.0,312.0,4.114
9.0,256.0,4.115
-17.0,176.0,4.116
-45.0,29.0,4.117
-50.0,-116.0,4.118
-46.0,-187.0,4.119
-47.0,-114.0,4.12
-65.0,-2.0,4.121
-75.0,24.0,4.122
-61.0,-7.0,4.123
-37.0,12.0,4.124
13.0,88.0,4.125
54.0,142.0,4.126
63.0,173.0,4.127
72.0,230.0,4.128
82.0,270.0,4.129
95.0,228.0,4.13
112.0,159.0,4.131
121.0,148.0,4.132
102.0,160.0,4.133
85.0,103.0,4.134
77.0,12.0,4.135
63.0,-11.0,4.136
35.0,14.0,4.137
0.0,-28.0,4.138
-55.0,-132.0,4.139
-107.0,-211.0,4.14
-136.0,-218.0,4.141
-123.0,-231.0,4.142
-79.0,-260.0,4.143
-31.0,-274.0,4.144
10.0,-240.0,4.145
57.0,-203.0,4.146
103.0,-158.0,4.147
114.0,-133.0,4.148
76.0,-170.0,4.149
31.0,-192.0,4.15
19.0,-162.0,4.151
30.0,-139.0,4.152
24.0,-135.0,4.153
-3.0,-131.0,4.154
-32.0,-131.0,4.155
-47.0,-105.0,4.156
-42.0,0.0,4.157
-12.0,108.0,4.158
33.0,212.0,4.159
69.0,296.0,4.16
78.0,321.0,4.161
84.0,262.0,4.162
76.0,137.0,4.163
60.0,16.0,4.164
20.0,-41.0,4.165
-10.0,-26.0,4.166
-7.0,31.0,4.167
-1.0,89.0,4.168
8.0,127.0,4.169
13.0,137.0,4.17
-2.0,121.0,4.171
-29.0,89.0,4.172
-90.0,62.0,4.173
-145.0,54.0,4.174
-181.0,50.0,4.175
-193.0,0.0,4.176
-132.0,-122.0,4.177
-68.0,-301.0,4.178
-25.0,-443.0,4.179
-15.0,-531.0,4.18
14.0,-453.0,4.181
88.0,-370.0,4.182
159.0,-268.0,4.183
152.0,-130.0,4.184
56.0,119.0,4.185
-80.0,334.0,4.186
-191.0,448.0,4.187
-243.0,534.0,4.188
-232.0,535.0,4.189
-173.0,522.0,4.19
-99.0,460.0,4.191
-37.0,396.0,4.192
12.0,323.0,4.193
74.0,248.0,4.194
156.0,167.0,4.195
221.0,68.0,4.196
239.0,-84.0,4.197
217.0,-239.0,4.198
198.0,-368.0,4.199
184.0,-383.0,4.2
149.0,-280.0,4.201
87.0,-148.0,4.202
32.0,-60.0,4.203
8.0,18.0,4.204
-11.0,120.0,4.205
-37.0,183.0,4.206
-39.0,154.0,4.207
-4.0,90.0,4.208
22.0,49.0,4.209
4.0,4.0,4.21
-30.0,-72.0,4.211
-34.0,-133.0,4.212
-24.0,-145.0,4.213
-36.0,-163.0,4.214
-62.0,-223.0,4.215
-63.0,-265.0,4.216
-45.0,-251.0,4.217
-39.0,-240.0,4.218
-52.0,-285.0,4.219
-54.0,-332.0,4.22
-25.0,-295.0,4.221
13.0,-180.0,4.222
43.0,-72.0,4.223
67.0,-5.0,4.224
90.0,37.0,4.225
103.0,57.0,4.226
101.0,67.0,4.227
89.0,110.0,4.228
69.0,221.0,4.229
31.0,357.0,4.23
-27.0,435.0,4.231
-81.0,414.0,4.232
-105.0,318.0,4.233
-97.0,192.0,4.234
-73.0,74.0,4.235
-48.0,-11.0,4.236
-17.0,-61.0,4.237
22.0,-101.0,4.238
59.0,-131.0,4.239
75.0,-138.0,4.24
28.0,-138.0,4.241
-34.0,-156.0,4.242
-144.0,-189.0,4.243
-215.0,-194.0,4.244
-169.0,-159.0,4.245
-123.0,-148.0,4.246
-75.0,-217.0,4.247
-35.0,-322.0,4.248
-24.0,-342.0,4.249
-8.0,-205.0,4.25
25.0,41.0,4.251
51.0,276.0,4.252
54.0,415.0,4.253
68.0,457.0,4.254
114.0,430.0,4.255
142.0,352.0,4.256
115.0,256.0,4.257
96.0,183.0,4.258
96.0,172.0,4.259
58.0,184.0,4.26
9.0,145.0,4.261
0.0,73.0,4.262
14.0,39.0,4.263
3.0,52.0,4.264
-17.0,37.0,4.265
-11.0,-31.0,4.266
8.0,-98.0,4.267
6.0,-130.0,4.268
-16.0,-184.0,4.269
-36.0,-300.0,4.27
-54.0,-420.0,4.271
-68.0,-467.0,4.272
-67.0,-447.0,4.273
-52.0,-390.0,4.274
-33.0,-265.0,4.275
-7.0,-31.0,4.276
33.0,234.0,4.277
82.0,423.0,4.278
114.0,471.0,4.279
118.0,428.0,4.28
101.0,360.0,4.281
67.0,280.0,4.282
23.0,184.0,4.283
-6.0,94.0,4.284
-4.0,32.0,4.285
2.0,-12.0,4.286
-7.0,-55.0,4.287
-8.0,-94.0,4.288
23.0,-123.0,4.289
63.0,-149.0,4.29
61.0,-179.0,4.291
11.0,-215.0,4.292
-47.0,-244.0,4.293
-90.0,-251.0,4.294
-115.0,-226.0,4.295
-109.0,-193.0,4.296
-74.0,-186.0,4.297
-41.0,-204.0,4.298
-48.0,-202.0,4.299
-80.0,-157.0,4.3
-77.0,-105.0,4.301
-27.0,-56.0,4.302
25.0,21.0,4.303
48.0,148.0,4.304
47.0,269.0,4.305
33.0,308.0,4.306
11.0,256.0,4.307
-2.0,160.0,4.308
10.0,89.0,4.309
37.0,109.0,4.31
58.0,227.0,4.311
69.0,348.0,4.312
75.0,350.0,4.313
58.0,223.0,4.314
15.0,69.0,4.315
-28.0,-42.0,4.316
-53.0,-114.0,4.317
-78.0,-167.0,4.318
-106.0,-178.0,4.319
-117.0,-159.0,4.32
-77.0,-156.0,4.321
-38.0,-168.0,4.322
-4.0,-174.0,4.323
16.0,-164.0,4.324
-7.0,-144.0,4.325
-20.0,-92.0,4.326
1.0,3.0,4.327
35.0,105.0,4.328
105.0,180.0,4.329
148.0,231.0,4.33
103.0,255.0,4.331
62.0,244.0,4.332
32.0,212.0,4.333
4.0,194.0,4.334
-18.0,186.0,4.335
-27.0,163.0,4.336
6.0,132.0,4.337
55.0,103.0,4.338
122.0,54.0,4.339
129.0,-55.0,4.34
93.0,-210.0,4.341
55.0,-343.0,4.342
20.0,-427.0,4.343
-29.0,-456.0,4.344
-77.0,-407.0,4.345
-91.0,-266.0,4.346
-82.0,-99.0,4.347
-82.0,-10.0,4.348
-73.0,-15.0,4.349
-24.0,-43.0,4.35
32.0,-26.0,4.351
45.0,30.0,4.352
31.0,103.0,4.353
46.0,179.0,4.354
80.0,226.0,4.355
72.0,185.0,4.356
27.0,70.0,4.357
-5.0,-49.0,4.358
4.0,-66.0,4.359
14.0,25.0,4.36
-6.0,129.0,4.361
-24.0,174.0,4.362
-19.0,156.0,4.363
-10.0,103.0,4.364
-20.0,34.0,4.365
-39.0,-32.0,4.366
-50.0,-79.0,4.367
-52.0,-131.0,4.368
-57.0,-260.0,4.369
-67.0,-482.0,4.37
-78.0,-675.0,4.371
-92.0,-667.0,4.372
-101.0,-440.0,4.373
-100.0,-153.0,4.374
-84.0,21.0,4.375
-53.0,47.0,4.376
-22.0,-16.0,4.377
-2.0,-112.0,4.378
15.0,-119.0,4.379
41.0,86.0,4.38
80.0,464.0,4.381
109.0,798.0,4.382
122.0,927.0,4.383
134.0,918.0,4.384
145.0,889.0,4.385
141.0,811.0,4.386
116.0,622.0,4.387
82.0,400.0,4.388
40.0,261.0,4.389
-16.0,179.0,4.39
-83.0,59.0,4.391
-141.0,-91.0,4.392
-176.0,-200.0,4.393
-175.0,-276.0,4.394
-126.0,-369.0,4.395
-44.0,-479.0,4.396
17.0,-560.0,4.397
42.0,-604.0,4.398
62.0,-596.0,4.399
76.0,-507.0,4.4
74.0,-372.0,4.401
69.0,-265.0,4.402
55.0,-204.0,4.403
58.0,-121.0,4.404
110.0,13.0,4.405
142.0,137.0,4.406
112.0,194.0,4.407
86.0,207.0,4.408
71.0,200.0,4.409
44.0,164.0,4.41
-21.0,101.0,4.411
-74.0,42.0,4.412
-93.0,-24.0,4.413
-106.0,-135.0,4.414
-100.0,-263.0,4.415
-93.0,-337.0,4.416
-82.0,-359.0,4.417
-69.0,-428.0,4.418
-51.0,-575.0,4.419
-22.0,-694.0,4.42
5.0,-653.0,4.421
22.0,-443.0,4.422
40.0,-177.0,4.423
68.0,62.0,4.424
78.0,277.0,4.425
57.0,485.0,4.426
27.0,668.0,4.427
19.0,794.0,4.428
27.0,867.0,4.429
37.0,888.0,4.43
51.0,840.0,4.431
69.0,710.0,4.432
76.0,529.0,4.433
58.0,347.0,4.434
21.0,196.0,4.435
-27.0,76.0,4.436
-66.0,-17.0,4.437
-85.0,-120.0,4.438
-74.0,-291.0,4.439
-55.0,-598.0,4.44
-43.0,-1008.0,4.441
-31.0,-1310.0,4.442
-7.0,-1269.0,4.443
7.0,-869.0,4.444
-12.0,-365.0,4.445
-49.0,-20.0,4.446
-71.0,150.0,4.447
-73.0,291.0,4.448
-77.0,472.0,4.449
-85.0,602.0,4.45
-82.0,570.0,4.451
-63.0,376.0,4.452
-36.0,124.0,4.453
2.0,-57.0,4.454
46.0,-106.0,4.455
78.0,-73.0,4.456
87.0,-43.0,4.457
85.0,-35.0,4.458
81.0,11.0,4.459
67.0,132.0,4.46
41.0,285.0,4.461
31.0,395.0,4.462
56.0,405.0,4.463
91.0,310.0,4.464
94.0,195.0,4.465
54.0,176.0,4.466
2.0,289.0,4.467
-45.0,436.0,4.468
-98.0,478.0,4.469
-159.0,357.0,4.47
-198.0,106.0,4.471
-195.0,-188.0,4.472
-159.0,-459.0,4.473
-107.0,-690.0,4.474
-38.0,-858.0,4.475
41.0,-842.0,4.476
101.0,-567.0,4.477
124.0,-142.0,4.478
127.0,89.0,4.479
117.0,-6.0,4.48
67.0,-139.0,4.481
27.0,6.0,4.482
18.0,357.0,4.483
33.0,627.0,4.484
121.0,731.0,4.485
177.0,761.0,4.486
135.0,718.0,4.487
86.0,537.0,4.488
19.0,279.0,4.489
-31.0,76.0,4.49
-32.0,-75.0,4.491
-32.0,-242.0,4.492
-25.0,-370.0,4.493
-10.0,-381.0,4.494
25.0,-368.0,4.495
38.0,-479.0,4.496
-18.0,-673.0,4.497
-68.0,-800.0,4.498
-75.0,-764.0,4.499
-49.0,-609.0,4.5
-29.0,-418.0,4.501
-5.0,-232.0,4.502
49.0,-108.0,4.503
105.0,-69.0,4.504
110.0,-65.0,4.505
63.0,-50.0,4.506
20.0,-20.0,4.507
12.0,47.0,4.508
26.0,209.0,4.509
28.0,421.0,4.51
-3.0,520.0,4.511
-66.0,420.0,4.512
-140.0,238.0,4.513
-199.0,133.0,4.514
-218.0,125.0,4.515
-176.0,122.0,4.516
-89.0,73.0,4.517
-3.0,-17.0,4.518
42.0,-110.0,4.519
61.0,-186.0,4.52
86.0,-239.0,4.521
97.0,-245.0,4.522
68.0,-151.0,4.523
22.0,70.0,4.524
9.0,304.0,4.525
34.0,357.0,4.526
50.0,202.0,4.527
34.0,43.0,4.528
12.0,21.0,4.529
14.0,5.0,4.53
43.0,-193.0,4.531
85.0,-481.0,4.532
108.0,-584.0,4.533
90.0,-396.0,4.534
53.0,-92.0,4.535
25.0,122.0,4.536
-20.0,199.0,4.537
-138.0,212.0,4.538
-284.0,235.0,4.539
-336.0,306.0,4.54
-242.0,409.0,4.541
-110.0,487.0,4.542
-61.0,479.0,4.543
-87.0,407.0,4.544
-101.0,343.0,4.545
-64.0,297.0,4.546
1.0,183.0,4.547
79.0,-96.0,4.548
165.0,-526.0,4.549
242.0,-930.0,4.55
305.0,-1054.0,4.551
377.0,-768.0,4.552
430.0,-217.0,4.553
369.0,296.0,4.554
176.0,599.0,4.555
-14.0,747.0,4.556
-90.0,826.0,4.557
-126.0,815.0,4.558
-200.0,671.0,4.559
-237.0,442.0,4.56
-158.0,199.0,4.561
-95.0,-21.0,4.562
-80.0,-191.0,4.563
-62.0,-264.0,4.564
-35.0,-277.0,4.565
-12.0,-321.0,4.566
0.0,-379.0,4.567
-12.0,-333.0,4.568
-96.0,-178.0,4.569
-155.0,-52.0,4.57
-133.0,-43.0,4.571
-103.0,-82.0,4.572
-49.0,-91.0,4.573
-4.0,-82.0,4.574
12.0,-78.0,4.575
22.0,-59.0,4.576
12.0,-36.0,4.577
18.0,-86.0,4.578
81.0,-240.0,4.579
143.0,-459.0,4.58
176.0,-675.0,4.581
185.0,-796.0,4.582
186.0,-720.0,4.583
182.0,-425.0,4.584
145.0,-46.0,4.585
34.0,233.0,4.586
-137.0,364.0,4.587
-285.0,418.0,4.588
-324.0,459.0,4.589
-265.0,487.0,4.59
-191.0,505.0,4.591
-143.0,509.0,4.592
-88.0,479.0,4.593
5.0,416.0,4.594
99.0,358.0,4.595
159.0,325.0,4.596
204.0,278.0,4.597
257.0,182.0,4.598
286.0,73.0,4.599
251.0,-6.0,4.6
199.0,-66.0,4.601
202.0,-117.0,4.602
239.0,-141.0,4.603
225.0,-135.0,4.604
135.0,-152.0,4.605
45.0,-219.0,4.606
21.0,-290.0,4.607
34.0,-307.0,4.608
4.0,-280.0,4.609
-86.0,-260.0,4.61
-172.0,-280.0,4.611
-179.0,-340.0,4.612
-129.0,-422.0,4.613
-107.0,-476.0,4.614
-147.0,-420.0,4.615
-183.0,-218.0,4.616
-150.0,42.0,4.617
-73.0,262.0,4.618
-39.0,358.0,4.619
-74.0,348.0,4.62
-122.0,298.0,4.621
-141.0,243.0,4.622
-134.0,165.0,4.623
-110.0,60.0,4.624
-64.0,-36.0,4.625
-17.0,-97.0,4.626
13.0,-154.0,4.627
41.0,-210.0,4.628
84.0,-182.0,4.629
113.0,-9.0,4.63
92.0,213.0,4.631
52.0,300.0,4.632
48.0,214.0,4.633
70.0,120.0,4.634
64.0,132.0,4.635
22.0,146.0,4.636
-7.0,21.0,4.637
-12.0,-254.0,4.638
-18.0,-496.0,4.639
-32.0,-555.0,4.64
-71.0,-440.0,4.641
-98.0,-247.0,4.642
-84.0,-47.0,4.643
-71.0,140.0,4.644
-60.0,330.0,4.645
-44.0,524.0,4.646
-15.0,689.0,4.647
20.0,778.0,4.648
74.0,762.0,4.649
109.0,663.0,4.65
82.0,518.0,4.651
61.0,359.0,4.652
61.0,206.0,4.653
78.0,70.0,4.654
145.0,-52.0,4.655
202.0,-152.0,4.656
226.0,-217.0,4.657
236.0,-273.0,4.658
174.0,-341.0,4.659
66.0,-404.0,4.66
-56.0,-422.0,4.661
-159.0,-404.0,4.662
-218.0,-424.0,4.663
-246.0,-508.0,4.664
-266.0,-587.0,4.665
-265.0,-617.0,4.666
-226.0,-628.0,4.667
-169.0,-658.0,4.668
-125.0,-704.0,4.669
-83.0,-744.0,4.67
-22.0,-715.0,4.671
33.0,-471.0,4.672
41.0,28.0,4.673
24.0,554.0,4.674
40.0,835.0,4.675
107.0,916.0,4.676
185.0,1033.0,4.677
265.0,1247.0,4.678
292.0,1369.0,4.679
286.0,1311.0,4.68
267.0,1179.0,4.681
258.0,1020.0,4.682
237.0,739.0,4.683
145.0,361.0,4.684
-13.0,62.0,4.685
-136.0,-108.0,4.686
-157.0,-269.0,4.687
-137.0,-461.0,4.688
-190.0,-596.0,4.689
-311.0,-673.0,4.69
-373.0,-784.0,4.691
-281.0,-900.0,4.692
-104.0,-881.0,4.693
13.0,-710.0,4.694
18.0,-520.0,4.695
-3.0,-380.0,4.696
33.0,-258.0,4.697
99.0,-132.0,4.698
100.0,-62.0,4.699
25.0,-53.0,4.7
-18.0,-51.0,4.701
30.0,-45.0,4.702
106.0,-62.0,4.703
134.0,-45.0,4.704
132.0,74.0,4.705
148.0,225.0,4.706
168.0,277.0,4.707
144.0,239.0,4.708
72.0,217.0,4.709
-18.0,192.0,4.71
-105.0,55.0,4.711
-159.0,-154.0,4.712
-144.0,-244.0,4.713
-75.0,-146.0,4.714
-31.0,-29.0,4.715
-60.0,-55.0,4.716
-111.0,-163.0,4.717
-141.0,-212.0,4.718
-162.0,-151.0,4.719
-179.0,-55.0,4.72
-187.0,-1.0,4.721
-164.0,0.0,4.722
-49.0,-50.0,4.723
42.0,-117.0,4.724
66.0,-102.0,4.725
99.0,61.0,4.726
160.0,276.0,4.727
209.0,391.0,4.728
221.0,397.0,4.729
223.0,427.0,4.73
197.0,536.0,4.731
161.0,634.0,4.732
93.0,628.0,4.733
34.0,523.0,4.734
2.0,360.0,4.735
-15.0,175.0,4.736
12.0,18.0,4.737
43.0,-116.0,4.738
69.0,-262.0,4.739
72.0,-428.0,4.74
75.0,-524.0,4.741
93.0,-488.0,4.742
96.0,-426.0,4.743
50.0,-456.0,4.744
-29.0,-483.0,4.745
-114.0,-334.0,4.746
-233.0,-45.0,4.747
-396.0,167.0,4.748
-505.0,185.0,4.749
-432.0,83.0,4.75
-210.0,-36.0,4.751
-29.0,-121.0,4.752
-1.0,-117.0,4.753
-38.0,4.0,4.754
-22.0,166.0,4.755
26.0,250.0,4.756
35.0,235.0,4.757
23.0,168.0,4.758
72.0,94.0,4.759
188.0,39.0,4.76
300.0,42.0,4.761
359.0,131.0,4.762
350.0,240.0,4.763
264.0,275.0,4.764
129.0,226.0,4.765
33.0,172.0,4.766
12.0,174.0,4.767
-14.0,210.0,4.768
-104.0,190.0,4.769
-177.0,36.0,4.77
-143.0,-235.0,4.771
-80.0,-506.0,4.772
-141.0,-649.0,4.773
-305.0,-656.0,4.774
-381.0,-604.0,4.775
-279.0,-525.0,4.776
-124.0,-387.0,4.777
-30.0,-185.0,4.778
29.0,2.0,4.779
135.0,154.0,4.78
259.0,202.0,4.781
293.0,250.0,4.782
228.0,300.0,4.783
157.0,344.0,4.784
133.0,368.0,4.785
133.0,358.0,4.786
136.0,248.0,4.787
145.0,140.0,4.788
140.0,38.0,4.789
98.0,-30.0,4.79
50.0,3.0,4.791
43.0,27.0,4.792
46.0,17.0,4.793
3.0,0.0,4.794
-81.0,-41.0,4.795
-142.0,-118.0,4.796
-160.0,-298.0,4.797
-158.0,-458.0,4.798
-137.0,-534.0,4.799
-116.0,-628.0,4.8
-95.0,-744.0,4.801
-85.0,-736.0,4.802
-110.0,-546.0,4.803
-121.0,-271.0,4.804
-87.0,13.0,4.805
-53.0,330.0,4.806
-19.0,649.0,4.807
17.0,836.0,4.808
63.0,859.0,4.809
101.0,820.0,4.81
115.0,779.0,4.811
123.0,666.0,4.812
110.0,458.0,4.813
88.0,229.0,4.814
40.0,27.0,4.815
1.0,-141.0,4.816
-7.0,-212.0,4.817
-22.0,-147.0,4.818
-66.0,-54.0,4.819
-99.0,5.0,4.82
-112.0,-40.0,4.821
-134.0,-87.0,4.822
-157.0,-141.0,4.823
-153.0,-235.0,4.824
-109.0,-449.0,4.825
-42.0,-564.0,4.826
41.0,-379.0,4.827
129.0,-204.0,4.828
165.0,-62.0,4.829
102.0,66.0,4.83
-11.0,153.0,4.831
-63.0,233.0,4.832
-11.0,290.0,4.833
72.0,369.0,4.834
113.0,510.0,4.835
138.0,587.0,4.836
189.0,465.0,4.837
235.0,332.0,4.838
211.0,193.0,4.839
136.0,79.0,4.84
81.0,-73.0,4.841
49.0,-253.0,4.842
-16.0,-434.0,4.843
-97.0,-577.0,4.844
-112.0,-602.0,4.845
-60.0,-462.0,4.846
-25.0,-229.0,4.847
-38.0,-48.0,4.848
-43.0,22.0,4.849
-26.0,17.0,4.85
-39.0,-53.0,4.851
-106.0,-230.0,4.852
-163.0,-503.0,4.853
-173.0,-751.0,4.854
-177.0,-830.0,4.855
-211.0,-687.0,4.856
-217.0,-434.0,4.857
-126.0,-166.0,4.858
41.0,53.0,4.859
169.0,253.0,4.86
190.0,442.0,4.861
153.0,585.0,4.862
156.0,670.0,4.863
213.0,737.0,4.864
242.0,780.0,4.865
184.0,726.0,4.866
84.0,554.0,4.867
11.0,345.0,4.868
-35.0,165.0,4.869
-97.0,7.0,4.87
-175.0,-129.0,4.871
-224.0,-197.0,4.872
-196.0,-217.0,4.873
-69.0,-314.0,4.874
121.0,-566.0,4.875
263.0,-869.0,4.876
267.0,-1008.0,4.877
174.0,-859.0,4.878
111.0,-474.0,4.879
44.0,-44.0,4.88
-34.0,291.0,4.881
-103.0,542.0,4.882
-139.0,720.0,4.883
-139.0,735.0,4.884
-28.0,525.0,4.885
51.0,224.0,4.886
31.0,45.0,4.887
3.0,39.0,4.888
-42.0,87.0,4.889
-79.0,98.0,4.89
-84.0,63.0,4.891
-74.0,3.0,4.892
-20.0,-36.0,4.893
18.0,29.0,4.894
4.0,205.0,4.895
-12.0,373.0,4.896
-36.0,433.0,4.897
-59.0,375.0,4.898
-63.0,240.0,4.899
-40.0,55.0,4.9
-29.0,-278.0,4.901
-48.0,-581.0,4.902
-64.0,-790.0,4.903
-67.0,-945.0,4.904
-96.0,-933.0,4.905
-145.0,-852.0,4.906
-146.0,-569.0,4.907
-76.0,-251.0,4.908
7.0,173.0,4.909
56.0,548.0,4.91
84.0,776.0,4.911
117.0,938.0,4.912
131.0,904.0,4.913
127.0,847.0,4.914
153.0,725.0,4.915
227.0,593.0,4.916
277.0,429.0,4.917
228.0,272.0,4.918
109.0,143.0,4.919
21.0,19.0,4.92
13.0,-85.0,4.921
30.0,-170.0,4.922
25.0,-284.0,4.923
4.0,-431.0,4.924
-13.0,-538.0,4.925
-32.0,-573.0,4.926
-53.0,-612.0,4.927
-65.0,-713.0,4.928
-81.0,-843.0,4.929
-132.0,-963.0,4.93
-183.0,-1046.0,4.931
-158.0,-976.0,4.932
-63.0,-588.0,4.933
0.0,48.0,4.934
-11.0,589.0,4.935
-18.0,791.0,4.936
40.0,769.0,4.937
111.0,733.0,4.938
109.0,729.0,4.939
50.0,668.0,4.94
21.0,536.0,4.941
45.0,399.0,4.942
72.0,261.0,4.943
86.0,118.0,4.944
114.0,31.0,4.945
161.0,24.0,4.946
189.0,12.0,4.947
172.0,-52.0,4.948
116.0,-87.0,4.949
37.0,-39.0,4.95
-50.0,17.0,4.951
-130.0,16.0,4.952
-205.0,-5.0,4.953
-278.0,-13.0,4.954
-325.0,-57.0,4.955
-302.0,-143.0,4.956
-224.0,-210.0,4.957
-151.0,-290.0,4.958
-99.0,-487.0,4.959
-36.0,-765.0,4.96
60.0,-901.0,4.961
134.0,-760.0,4.962
146.0,-459.0,4.963
149.0,-137.0,4.964
126.0,223.0,4.965
93.0,632.0,4.966
35.0,930.0,4.967
-2.0,986.0,4.968
23.0,882.0,4.969
44.0,780.0,4.97
48.0,686.0,4.971
54.0,518.0,4.972
68.0,283.0,4.973
69.0,52.0,4.974
24.0,-174.0,4.975
-29.0,-419.0,4.976
-109.0,-613.0,4.977
-191.0,-675.0,4.978
-263.0,-569.0,4.979
-263.0,-404.0,4.98
-199.0,-356.0,4.981
-142.0,-536.0,4.982
-104.0,-895.0,4.983
-16.0,-1148.0,4.984
133.0,-945.0,4.985
230.0,-258.0,4.986
198.0,515.0,4.987
115.0,942.0,4.988
82.0,1004.0,4.989
83.0,978.0,4.99
61.0,992.0,4.991
43.0,926.0,4.992
82.0,726.0,4.993
145.0,512.0,4.994
163.0,365.0,4.995
147.0,224.0,4.996
147.0,64.0,4.997
150.0,-67.0,4.998
111.0,-131.0,4.999
41.0,-196.0,5.0
6.0,-289.0,5.001
21.0,-323.0,5.002
17.0,-303.0,5.003
-59.0,-409.0,5.004
-177.0,-753.0,5.005
-238.0,-1131.0,5.006
-187.0,-1207.0,5.007
-78.0,-915.0,5.008
-19.0,-496.0,5.009
-37.0,-174.0,5.01
-70.0,67.0,5.011
-78.0,321.0,5.012
-100.0,543.0,5.013
-158.0,638.0,5.014
-187.0,610.0,5.015
-133.0,513.0,5.016
-39.0,349.0,5.017
31.0,60.0,5.018
64.0,-226.0,5.019
95.0,-296.0,5.02
126.0,-104.0,5.021
127.0,145.0,5.022
112.0,250.0,5.023
126.0,257.0,5.024
172.0,319.0,5.025
204.0,425.0,5.026
183.0,427.0,5.027
120.0,283.0,5.028
27.0,102.0,5.029
-95.0,-36.0,5.03
-211.0,-145.0,5.031
-246.0,-204.0,5.032
-175.0,-154.0,5.033
-78.0,-28.0,5.034
-50.0,52.0,5.035
-68.0,54.0,5.036
-47.0,63.0,5.037
0.0,123.0,5.038
-5.0,164.0,5.039
-21.0,121.0,5.04
-66.0,22.0,5.041
-86.0,-95.0,5.042
-31.0,-285.0,5.043
21.0,-561.0,5.044
67.0,-754.0,5.045
109.0,-656.0,5.046
139.0,-287.0,5.047
167.0,87.0,5.048
184.0,258.0,5.049
195.0,272.0,5.05
182.0,277.0,5.051
160.0,280.0,5.052
113.0,231.0,5.053
74.0,173.0,5.054
60.0,175.0,5.055
43.0,170.0,5.056
17.0,60.0,5.057
-16.0,-146.0,5.058
-95.0,-299.0,5.059
-226.0,-351.0,5.06
-347.0,-389.0,5.061
-389.0,-452.0,5.062
-345.0,-474.0,5.063
-258.0,-389.0,5.064
-150.0,-247.0,5.065
-33.0,-171.0,5.066
49.0,-195.0,5.067
51.0,-194.0,5.068
4.0,-16.0,5.069
0.0,318.0,5.07
59.0,609.0,5.071
107.0,713.0,5.072
92.0,699.0,5.073
69.0,690.0,5.074
105.0,669.0,5.075
164.0,554.0,5.076
171.0,390.0,5.077
99.0,266.0,5.078
53.0,223.0,5.079
80.0,197.0,5.08
139.0,123.0,5.081
170.0,7.0,5.082
160.0,-152.0,5.083
132.0,-354.0,5.084
99.0,-543.0,5.085
46.0,-634.0,5.086
-47.0,-614.0,5.087
-145.0,-545.0,5.088
-179.0,-456.0,5.089
-127.0,-328.0,5.09
-74.0,-167.0,5.091
-103.0,-44.0,5.092
-174.0,-10.0,5.093
-178.0,-62.0,5.094
-100.0,-195.0,5.095
-30.0,-398.0,5.096
-17.0,-563.0,5.097
-17.0,-538.0,5.098
13.0,-251.0,5.099
51.0,140.0,5.1
65.0,392.0,5.101
64.0,444.0,5.102
66.0,425.0,5.103
57.0,437.0,5.104
39.0,441.0,5.105
29.0,403.0,5.106
39.0,411.0,5.107
48.0,513.0,5.108
51.0,591.0,5.109
54.0,490.0,5.11
51.0,247.0,5.111
14.0,27.0,5.112
-52.0,-99.0,5.113
-98.0,-180.0,5.114
-79.0,-241.0,5.115
-16.0,-272.0,5.116
23.0,-302.0,5.117
-10.0,-359.0,5.118
-67.0,-368.0,5.119
-94.0,-240.0,5.12
-24.0,-42.0,5.121
28.0,86.0,5.122
28.0,109.0,5.123
32.0,95.0,5.124
44.0,74.0,5.125
50.0,28.0,5.126
35.0,-24.0,5.127
19.0,-54.0,5.128
5.0,-82.0,5.129
-2.0,-113.0,5.13
11.0,-100.0,5.131
30.0,-36.0,5.132
59.0,-16.0,5.133
87.0,-91.0,5.134
109.0,-173.0,5.135
126.0,-174.0,5.136
123.0,-143.0,5.137
118.0,-145.0,5.138
67.0,-130.0,5.139
-53.0,-35.0,5.14
-174.0,98.0,5.141
-211.0,210.0,5.142
-178.0,304.0,5.143
-167.0,372.0,5.144
-213.0,338.0,5.145
-265.0,160.0,5.146
-273.0,-92.0,5.147
-239.0,-350.0,5.148
-167.0,-603.0,5.149
-44.0,-811.0,5.15
93.0,-876.0,5.151
178.0,-731.0,5.152
202.0,-399.0,5.153
224.0,44.0,5.154
257.0,474.0,5.155
251.0,753.0,5.156
193.0,834.0,5.157
119.0,817.0,5.158
82.0,830.0,5.159
76.0,879.0,5.16
63.0,881.0,5.161
24.0,796.0,5.162
-37.0,635.0,5.163
-108.0,410.0,5.164
-163.0,144.0,5.165
-183.0,-119.0,5.166
-161.0,-332.0,5.167
-92.0,-483.0,5.168
14.0,-582.0,5.169
103.0,-640.0,5.17
99.0,-678.0,5.171
-16.0,-729.0,5.172
-164.0,-804.0,5.173
-243.0,-848.0,5.174
-209.0,-754.0,5.175
-89.0,-473.0,5.176
57.0,-112.0,5.177
205.0,220.0,5.178
322.0,446.0,5.179
393.0,592.0,5.18
416.0,693.0,5.181
385.0,722.0,5.182
293.0,652.0,5.183
147.0,532.0,5.184
-21.0,417.0,5.185
-167.0,294.0,5.186
-252.0,127.0,5.187
-271.0,-86.0,5.188
-245.0,-330.0,5.189
-195.0,-599.0,5.19
-130.0,-867.0,5.191
-47.0,-1018.0,5.192
42.0,-909.0,5.193
122.0,-543.0,5.194
172.0,-122.0,5.195
176.0,154.0,5.196
132.0,274.0,5.197
56.0,368.0,5.198
-28.0,477.0,5.199
-111.0,523.0,5.2
-192.0,460.0,5.201
-246.0,356.0,5.202
-216.0,252.0,5.203
-174.0,118.0,5.204
-97.0,-49.0,5.205
-35.0,-172.0,5.206
-19.0,-206.0,5.207
-2.0,-230.0,5.208
11.0,-342.0,5.209
13.0,-509.0,5.21
-23.0,-583.0,5.211
-50.0,-476.0,5.212
-51.0,-264.0,5.213
-50.0,-101.0,5.214
-43.0,-41.0,5.215
-12.0,7.0,5.216
88.0,122.0,5.217
187.0,279.0,5.218
232.0,395.0,5.219
187.0,470.0,5.22
127.0,556.0,5.221
101.0,617.0,5.222
68.0,558.0,5.223
1.0,378.0,5.224
-58.0,205.0,5.225
-62.0,131.0,5.226
-37.0,123.0,5.227
-40.0,115.0,5.228
-72.0,94.0,5.229
-88.0,65.0,5.23
-53.0,17.0,5.231
48.0,-66.0,5.232
183.0,-161.0,5.233
274.0,-227.0,5.234
256.0,-230.0,5.235
160.0,-165.0,5.236
66.0,-78.0,5.237
-17.0,-31.0,5.238
-133.0,-51.0,5.239
-272.0,-99.0,5.24
-343.0,-157.0,5.241
-286.0,-262.0,5.242
-155.0,-418.0,5.243
-39.0,-518.0,5.244
47.0,-451.0,5.245
138.0,-271.0,5.246
204.0,-127.0,5.247
184.0,-75.0,5.248
87.0,-20.0,5.249
-2.0,113.0,5.25
-32.0,284.0,5.251
-18.0,413.0,5.252
20.0,477.0,5.253
75.0,497.0,5.254
98.0,476.0,5.255
42.0,420.0,5.256
-56.0,341.0,5.257
-140.0,213.0,5.258
-185.0,14.0,5.259
-222.0,-233.0,5.26
-240.0,-436.0,5.261
-180.0,-502.0,5.262
-54.0,-466.0,5.263
63.0,-450.0,5.264
139.0,-502.0,5.265
198.0,-512.0,5.266
227.0,-361.0,5.267
184.0,-110.0,5.268
105.0,64.0,5.269
79.0,95.0,5.27
106.0,98.0,5.271
99.0,182.0,5.272
44.0,309.0,5.273
21.0,391.0,5.274
57.0,409.0,5.275
88.0,398.0,5.276
78.0,372.0,5.277
75.0,320.0,5.278
111.0,259.0,5.279
138.0,196.0,5.28
138.0,114.0,5.281
134.0,23.0,5.282
115.0,-34.0,5.283
72.0,-30.0,5.284
-41.0,4.0,5.285
-178.0,20.0,5.286
-378.0,-4.0,5.287
-504.0,-61.0,5.288
-403.0,-165.0,5.289
-300.0,-342.0,5.29
-193.0,-563.0,5.291
-114.0,-751.0,5.292
-125.0,-858.0,5.293
-117.0,-915.0,5.294
-51.0,-909.0,5.295
-4.0,-726.0,5.296
-17.0,-337.0,5.297
-14.0,124.0,5.298
52.0,437.0,5.299
67.0,698.0,5.3
15.0,802.0,5.301
-9.0,895.0,5.302
40.0,955.0,5.303
105.0,978.0,5.304
149.0,884.0,5.305
200.0,773.0,5.306
264.0,609.0,5.307
304.0,440.0,5.308
308.0,261.0,5.309
283.0,70.0,5.31
229.0,-157.0,5.311
131.0,-336.0,5.312
7.0,-369.0,5.313
-113.0,-404.0,5.314
-207.0,-445.0,5.315
-255.0,-483.0,5.316
-256.0,-507.0,5.317
-235.0,-525.0,5.318
-225.0,-554.0,5.319
-203.0,-615.0,5.32
-144.0,-650.0,5.321
-75.0,-671.0,5.322
-32.0,-748.0,5.323
-8.0,-833.0,5.324
23.0,-741.0,5.325
44.0,-373.0,5.326
46.0,132.0,5.327
69.0,516.0,5.328
131.0,670.0,5.329
182.0,702.0,5.33
180.0,752.0,5.331
164.0,831.0,5.332
172.0,866.0,5.333
181.0,830.0,5.334
154.0,759.0,5.335
120.0,658.0,5.336
107.0,509.0,5.337
81.0,302.0,5.338
19.0,118.0,5.339
-48.0,-5.0,5.34
-82.0,-110.0,5.341
-93.0,-227.0,5.342
-103.0,-327.0,5.343
-102.0,-390.0,5.344
-73.0,-470.0,5.345
-43.0,-617.0,5.346
-27.0,-762.0,5.347
-11.0,-763.0,5.348
19.0,-577.0,5.349
32.0,-319.0,5.35
-3.0,-103.0,5.351
-80.0,55.0,5.352
-151.0,181.0,5.353
-175.0,239.0,5.354
-146.0,187.0,5.355
-99.0,84.0,5.356
-77.0,32.0,5.357
-70.0,52.0,5.358
-32.0,88.0,5.359
17.0,91.0,5.36
99.0,71.0,5.361
158.0,77.0,5.362
147.0,131.0,5.363
136.0,227.0,5.364
130.0,314.0,5.365
116.0,332.0,5.366
74.0,276.0,5.367
38.0,198.0,5.368
18.0,126.0,5.369
5.0,38.0,5.37
15.0,-58.0,5.371
26.0,-103.0,5.372
34.0,-79.0,5.373
34.0,-64.0,5.374
7.0,-124.0,5.375
-33.0,-214.0,5.376
-110.0,-237.0,5.377
-181.0,-189.0,5.378
-219.0,-145.0,5.379
-230.0,-115.0,5.38
-221.0,-129.0,5.381
-171.0,-135.0,5.382
-67.0,-112.0,5.383
37.0,-133.0,5.384
78.0,-291.0,5.385
67.0,-439.0,5.386
67.0,-555.0,5.387
92.0,-548.0,5.388
101.0,-174.0,5.389
81.0,173.0,5.39
64.0,445.0,5.391
63.0,646.0,5.392
62.0,635.0,5.393
53.0,580.0,5.394
41.0,398.0,5.395
34.0,220.0,5.396
25.0,57.0,5.397
16.0,-72.0,5.398
17.0,-72.0,5.399
23.0,-44.0,5.4
38.0,29.0,5.401
59.0,174.0,5.402
73.0,302.0,5.403
62.0,309.0,5.404
31.0,209.0,5.405
4.0,109.0,5.406
-15.0,54.0,5.407
-24.0,15.0,5.408
-7.0,-30.0,5.409
42.0,-55.0,5.41
85.0,-55.0,5.411
72.0,-63.0,5.412
17.0,-93.0,5.413
-30.0,-129.0,5.414
-48.0,-166.0,5.415
-57.0,-223.0,5.416
-67.0,-305.0,5.417
-78.0,-431.0,5.418
-81.0,-566.0,5.419
-76.0,-628.0,5.42
-71.0,-520.0,5.421
-85.0,-241.0,5.422
-116.0,63.0,5.423
-132.0,223.0,5.424
-98.0,215.0,5.425
-31.0,146.0,5.426
19.0,102.0,5.427
26.0,62.0,5.428
5.0,-10.0,5.429
-14.0,-74.0,5.43
-11.0,-36.0,5.431
15.0,118.0,5.432
37.0,287.0,5.433
36.0,358.0,5.434
33.0,329.0,5.435
59.0,283.0,5.436
100.0,283.0,5.437
111.0,319.0,5.438
91.0,330.0,5.439
78.0,270.0,5.44
90.0,146.0,5.441
96.0,25.0,5.442
83.0,-58.0,5.443
70.0,-119.0,5.444
57.0,-187.0,5.445
34.0,-245.0,5.446
-19.0,-255.0,5.447
-77.0,-218.0,5.448
-147.0,-172.0,5.449
-189.0,-146.0,5.45
-139.0,-157.0,5.451
-81.0,-221.0,5.452
3.0,-332.0,5.453
53.0,-431.0,5.454
-3.0,-439.0,5.455
-49.0,-333.0,5.456
-62.0,-168.0,5.457
-68.0,13.0,5.458
-51.0,171.0,5.459
-31.0,302.0,5.46
25.0,419.0,5.461
91.0,521.0,5.462
103.0,563.0,5.463
67.0,501.0,5.464
59.0,340.0,5.465
105.0,134.0,5.466
145.0,-46.0,5.467
129.0,-131.0,5.468
87.0,-80.0,5.469
55.0,60.0,5.47
19.0,182.0,5.471
-36.0,213.0,5.472
-79.0,175.0,5.473
-84.0,115.0,5.474
-59.0,43.0,5.475
-29.0,-51.0,5.476
-11.0,-148.0,5.477
-30.0,-235.0,5.478
-72.0,-291.0,5.479
-78.0,-309.0,5.48
-8.0,-292.0,5.481
91.0,-251.0,5.482
144.0,-201.0,5.483
149.0,-146.0,5.484
147.0,-91.0,5.485
137.0,-48.0,5.486
69.0,-21.0,5.487
-51.0,-2.0,5.488
-137.0,-10.0,5.489
-132.0,-83.0,5.49
-80.0,-201.0,5.491
-58.0,-256.0,5.492
-79.0,-198.0,5.493
-104.0,-110.0,5.494
-115.0,-83.0,5.495
-127.0,-76.0,5.496
-129.0,-16.0,5.497
-92.0,86.0,5.498
-19.0,160.0,5.499
37.0,205.0,5.5
43.0,264.0,5.501
17.0,312.0,5.502
-4.0,285.0,5.503
-13.0,222.0,5.504
-22.0,213.0,5.505
-17.0,255.0,5.506
25.0,262.0,5.507
90.0,215.0,5.508
134.0,166.0,5.509
136.0,127.0,5.51
112.0,55.0,5.511
93.0,-37.0,5.512
77.0,-92.0,5.513
50.0,-101.0,5.514
10.0,-108.0,5.515
-26.0,-125.0,5.516
-44.0,-128.0,5.517
-54.0,-122.0,5.518
-68.0,-127.0,5.519
-75.0,-124.0,5.52
-60.0,-92.0,5.521
-46.0,-70.0,5.522
-36.0,-112.0,5.523
-27.0,-180.0,5.524
-20.0,-195.0,5.525
-9.0,-165.0,5.526
12.0,-159.0,5.527
32.0,-187.0,5.528
40.0,-202.0,5.529
49.0,-202.0,5.53
62.0,-210.0,5.531
69.0,-186.0,5.532
59.0,-69.0,5.533
53.0,106.0,5.534
57.0,262.0,5.535
65.0,392.0,5.536
82.0,501.0,5.537
99.0,542.0,5.538
101.0,464.0,5.539
55.0,331.0,5.54
-10.0,252.0,5.541
-41.0,215.0,5.542
-23.0,119.0,5.543
7.0,-27.0,5.544
11.0,-124.0,5.545
-5.0,-142.0,5.546
-15.0,-157.0,5.547
-25.0,-199.0,5.548
-81.0,-221.0,5.549
-197.0,-196.0,5.55
-310.0,-166.0,5.551
-329.0,-164.0,5.552
-232.0,-182.0,5.553
-91.0,-194.0,5.554
12.0,-181.0,5.555
80.0,-156.0,5.556
147.0,-153.0,5.557
220.0,-175.0,5.558
203.0,-159.0,5.559
107.0,-50.0,5.56
27.0,107.0,5.561
27.0,216.0,5.562
59.0,246.0,5.563
56.0,252.0,5.564
30.0,265.0,5.565
22.0,254.0,5.566
21.0,204.0,5.567
0.0,150.0,5.568
-24.0,120.0,5.569
-21.0,95.0,5.57
-5.0,54.0,5.571
2.0,1.0,5.572
8.0,-53.0,5.573
14.0,-108.0,5.574
0.0,-153.0,5.575
-34.0,-167.0,5.576
-50.0,-145.0,5.577
-24.0,-108.0,5.578
3.0,-87.0,5.579
-9.0,-89.0,5.58
-43.0,-93.0,5.581
-44.0,-64.0,5.582
1.0,-3.0,5.583
41.0,47.0,5.584
36.0,50.0,5.585
-2.0,18.0,5.586
-40.0,-19.0,5.587
-62.0,-49.0,5.588
-72.0,-72.0,5.589
-73.0,-84.0,5.59
-52.0,-80.0,5.591
5.0,-69.0,5.592
91.0,-58.0,5.593
169.0,-41.0,5.594
207.0,-11.0,5.595
205.0,25.0,5.596
184.0,53.0,5.597
145.0,76.0,5.598
82.0,110.0,5.599
13.0,143.0,5.6
-72.0,148.0,5.601
-133.0,128.0,5.602
-117.0,104.0,5.603
-97.0,89.0,5.604
-64.0,68.0,5.605
-39.0,24.0,5.606
-39.0,-36.0,5.607
-37.0,-87.0,5.608
-27.0,-109.0,5.609
-19.0,-109.0,5.61
-20.0,-102.0,5.611
-22.0,-97.0,5.612
-22.0,-87.0,5.613
-20.0,-66.0,5.614
-14.0,-28.0,5.615
-3.0,24.0,5.616
22.0,78.0,5.617
43.0,120.0,5.618
36.0,152.0,5.619
10.0,177.0,5.62
-13.0,186.0,5.621
-28.0,156.0,5.622
-38.0,79.0,5.623
-49.0,1.0,5.624
-54.0,-25.0,5.625
-48.0,-9.0,5.626
-22.0,0.0,5.627
20.0,-14.0,5.628
62.0,-33.0,5.629
81.0,-52.0,5.63
67.0,-77.0,5.631
37.0,-92.0,5.632
18.0,-80.0,5.633
17.0,-57.0,5.634
11.0,-57.0,5.635
-9.0,-74.0,5.636
-19.0,-77.0,5.637
-3.0,-63.0,5.638
24.0,-53.0,5.639
26.0,-58.0,5.64
4.0,-59.0,5.641
-13.0,-49.0,5.642
-10.0,-40.0,5.643
9.0,-35.0,5.644
31.0,-26.0,5.645
48.0,-17.0,5.646
50.0,-22.0,5.647
43.0,-29.0,5.648
40.0,-22.0,5.649
49.0,-4.0,5.65
48.0,7.0,5.651
19.0,12.0,5.652
-15.0,22.0,5.653
-28.0,32.0,5.654
-41.0,13.0,5.655
-85.0,-54.0,5.656
-141.0,-156.0,5.657
-168.0,-262.0,5.658
-142.0,-310.0,5.659
-100.0,-277.0,5.66
-71.0,-201.0,5.661
-35.0,-122.0,5.662
20.0,-29.0,5.663
67.0,104.0,5.664
75.0,263.0,5.665
63.0,403.0,5.666
72.0,495.0,5.667
100.0,533.0,5.668
106.0,514.0,5.669
79.0,451.0,5.67
47.0,379.0,5.671
34.0,317.0,5.672
34.0,235.0,5.673
39.0,128.0,5.674
54.0,42.0,5.675
70.0,9.0,5.676
70.0,-9.0,5.677
47.0,-71.0,5.678
23.0,-156.0,5.679
9.0,-219.0,5.68
-3.0,-266.0,5.681
-37.0,-316.0,5.682
-105.0,-345.0,5.683
-189.0,-317.0,5.684
-248.0,-260.0,5.685
-234.0,-229.0,5.686
-144.0,-214.0,5.687
-37.0,-156.0,5.688
10.0,-52.0,5.689
1.0,44.0,5.69
-4.0,101.0,5.691
31.0,138.0,5.692
87.0,158.0,5.693
142.0,136.0,5.694
193.0,75.0,5.695
239.0,25.0,5.696
262.0,6.0,5.697
256.0,-12.0,5.698
218.0,-41.0,5.699
137.0,-63.0,5.7
15.0,-66.0,5.701
-107.0,-45.0,5.702
-178.0,-12.0,5.703
-196.0,19.0,5.704
-197.0,27.0,5.705
-189.0,4.0,5.706
-150.0,-27.0,5.707
-74.0,-69.0,5.708
-7.0,-159.0,5.709
4.0,-304.0,5.71
-38.0,-417.0,5.711
-89.0,-400.0,5.712
-102.0,-261.0,5.713
-90.0,-98.0,5.714
-84.0,26.0,5.715
-83.0,137.0,5.716
-43.0,254.0,5.717
56.0,366.0,5.718
149.0,433.0,5.719
157.0,444.0,5.72
101.0,410.0,5.721
65.0,343.0,5.722
74.0,257.0,5.723
79.0,181.0,5.724
60.0,118.0,5.725
62.0,38.0,5.726
95.0,-62.0,5.727
104.0,-124.0,5.728
52.0,-115.0,5.729
-8.0,-82.0,5.73
-13.0,-86.0,5.731
26.0,-109.0,5.732
52.0,-99.0,5.733
42.0,-67.0,5.734
7.0,-64.0,5.735
-23.0,-89.0,5.736
-28.0,-96.0,5.737
-13.0,-80.0,5.738
2.0,-72.0,5.739
-8.0,-86.0,5.74
-28.0,-97.0,5.741
-41.0,-90.0,5.742
-53.0,-88.0,5.743
-81.0,-89.0,5.744
-101.0,-74.0,5.745
-86.0,-47.0,5.746
-51.0,-33.0,5.747
-20.0,-26.0,5.748
3.0,2.0,5.749
36.0,42.0,5.75
71.0,50.0,5.751
81.0,22.0,5.752
68.0,1.0,5.753
49.0,16.0,5.754
30.0,38.0,5.755
15.0,35.0,5.756
10.0,21.0,5.757
11.0,14.0,5.758
5.0,19.0,5.759
-15.0,26.0,5.76
-25.0,26.0,5.761
-10.0,26.0,5.762
11.0,9.0,5.763
-4.0,-32.0,5.764
-41.0,-96.0,5.765
-59.0,-156.0,5.766
-50.0,-164.0,5.767
-53.0,-99.0,5.768
-85.0,4.0,5.769
-109.0,80.0,5.77
-93.0,108.0,5.771
-57.0,128.0,5.772
-31.0,176.0,5.773
-7.0,222.0,5.774
38.0,229.0,5.775
80.0,204.0,5.776
93.0,179.0,5.777
90.0,159.0,5.778
109.0,136.0,5.779
132.0,105.0,5.78
99.0,65.0,5.781
14.0,27.0,5.782
-40.0,-2.0,5.783
-10.0,-19.0,5.784
43.0,-34.0,5.785
45.0,-55.0,5.786
4.0,-73.0,5.787
-27.0,-74.0,5.788
-46.0,-70.0,5.789
-60.0,-79.0,5.79
-38.0,-94.0,5.791
43.0,-99.0,5.792
117.0,-96.0,5.793
91.0,-97.0,5.794
-14.0,-101.0,5.795
-93.0,-109.0,5.796
-86.0,-114.0,5.797
-32.0,-116.0,5.798
9.0,-103.0,5.799
13.0,-80.0,5.8
-15.0,-62.0,5.801
-50.0,-43.0,5.802
-70.0,-16.0,5.803
-60.0,9.0,5.804
-26.0,14.0,5.805
19.0,11.0,5.806
67.0,18.0,5.807
102.0,35.0,5.808
110.0,41.0,5.809
90.0,32.0,5.81
57.0,15.0,5.811
22.0,6.0,5.812
-6.0,9.0,5.813
-21.0,28.0,5.814
-35.0,42.0,5.815
-67.0,35.0,5.816
-101.0,13.0,5.817
-105.0,-8.0,5.818
-57.0,-13.0,5.819
4.0,-9.0,5.82
36.0,-9.0,5.821
37.0,-2.0,5.822
36.0,14.0,5.823
41.0,25.0,5.824
36.0,18.0,5.825
15.0,5.0,5.826
-13.0,-1.0,5.827
-37.0,1.0,5.828
-43.0,5.0,5.829
-22.0,11.0,5.83
20.0,18.0,5.831
55.0,25.0,5.832
66.0,25.0,5.833
45.0,18.0,5.834
8.0,1.0,5.835
-20.0,-16.0,5.836
-19.0,-22.0,5.837
-1.0,-18.0,5.838
0.0,-16.0,5.839
-23.0,-29.0,5.84
-30.0,-45.0,5.841
5.0,-44.0,5.842
48.0,-23.0,5.843
40.0,4.0,5.844
-8.0,26.0,5.845
-23.0,30.0,5.846
29.0,10.0,5.847
93.0,-24.0,5.848
85.0,-51.0,5.849
2.0,-49.0,5.85
-73.0,-17.0,5.851
-82.0,31.0,5.852
-44.0,80.0,5.853
-6.0,127.0,5.854
18.0,164.0,5.855
42.0,173.0,5.856
64.0,139.0,5.857
67.0,72.0,5.858
50.0,11.0,5.859
26.0,-34.0,5.86
-5.0,-30.0,5.861
-41.0,-29.0,5.862
-67.0,-41.0,5.863
-66.0,-52.0,5.864
-50.0,-60.0,5.865
-36.0,-67.0,5.866
-24.0,-72.0,5.867
-6.0,-76.0,5.868
14.0,-73.0,5.869
30.0,-58.0,5.87
46.0,-12.0,5.871
51.0,28.0,5.872
10.0,50.0,5.873
-71.0,62.0,5.874
-125.0,37.0,5.875
-95.0,16.0,5.876
-27.0,7.0,5.877
3.0,3.0,5.878
-8.0,5.0,5.879
5.0,-15.0,5.88
66.0,-49.0,5.881
102.0,-63.0,5.882
68.0,-52.0,5.883
20.0,-31.0,5.884
8.0,-15.0,5.885
1.0,-17.0,5.886
-45.0,-31.0,5.887
-87.0,-37.0,5.888
-55.0,-18.0,5.889
23.0,18.0,5.89
55.0,44.0,5.891
25.0,54.0,5.892
0.0,62.0,5.893
9.0,72.0,5.894
-3.0,73.0,5.895
-64.0,53.0,5.896
-103.0,25.0,5.897
-68.0,4.0,5.898
10.0,2.0,5.899
63.0,9.0,5.9
80.0,8.0,5.901
92.0,10.0,5.902
100.0,15.0,5.903
85.0,12.0,5.904
63.0,-8.0,5.905
60.0,-35.0,5.906
62.0,-54.0,5.907
44.0,-58.0,5.908
24.0,-53.0,5.909
27.0,-43.0,5.91
26.0,-40.0,5.911
-12.0,-44.0,5.912
-54.0,-44.0,5.913
-45.0,-27.0,5.914
-3.0,0.0,5.915
17.0,18.0,5.916
11.0,24.0,5.917
18.0,20.0,5.918
29.0,18.0,5.919
-4.0,15.0,5.92
-72.0,14.0,5.921
-102.0,17.0,5.922
-65.0,12.0,5.923
-25.0,-2.0,5.924
-27.0,-8.0,5.925
-42.0,2.0,5.926
-27.0,11.0,5.927
7.0,7.0,5.928
30.0,0.0,5.929
26.0,1.0,5.93
11.0,2.0,5.931
-4.0,-1.0,5.932
-11.0,1.0,5.933
-20.0,10.0,5.934
-27.0,9.0,5.935
-13.0,-4.0,5.936
31.0,-9.0,5.937
66.0,-7.0,5.938
48.0,-13.0,5.939
-2.0,-38.0,5.94
-20.0,-51.0,5.941
-7.0,-27.0,5.942
-15.0,12.0,5.943
-40.0,29.0,5.944
-17.0,28.0,5.945
54.0,38.0,5.946
95.0,56.0,5.947
57.0,54.0,5.948
9.0,19.0,5.949
22.0,-22.0,5.95
72.0,-46.0,5.951
97.0,-42.0,5.952
75.0,-19.0,5.953
20.0,-3.0,5.954
-65.0,-7.0,5.955
-152.0,-25.0,5.956
-192.0,-33.0,5.957
-163.0,-28.0,5.958
-99.0,-19.0,5.959
-47.0,-16.0,5.96
-8.0,-13.0,5.961
32.0,-1.0,5.962
56.0,14.0,5.963
40.0,25.0,5.964
-3.0,29.0,5.965
-34.0,34.0,5.966
-32.0,33.0,5.967
0.0,34.0,5.968
62.0,49.0,5.969
143.0,74.0,5.97
208.0,85.0,5.971
217.0,71.0,5.972
160.0,49.0,5.973
69.0,35.0,5.974
-23.0,14.0,5.975
-95.0,-35.0,5.976
-132.0,-88.0,5.977
-131.0,-106.0,5.978
-95.0,-86.0,5.979
-50.0,-62.0,5.98
-12.0,-64.0,5.981
25.0,-65.0,5.982
70.0,-43.0,5.983
97.0,-18.0,5.984
71.0,-12.0,5.985
-3.0,-9.0,5.986
-80.0,17.0,5.987
-128.0,45.0,5.988
-135.0,47.0,5.989
-82.0,31.0,5.99
16.0,22.0,5.991
88.0,16.0,5.992
80.0,2.0,5.993
40.0,-13.0,5.994
47.0,-7.0,5.995
73.0,7.0,5.996
51.0,7.0,5.997
-11.0,-10.0,5.998
-41.0,-14.0,5.999
-39.0,2.0,6.0
-65.0,16.0,6.001
-115.0,23.0,6.002
-121.0,30.0,6.003
-68.0,47.0,6.004
-17.0,64.0,6.005
3.0,70.0,6.006
16.0,61.0,6.007
21.0,29.0,6.008
11.0,-30.0,6.009
6.0,-91.0,6.01
32.0,-123.0,6.011
71.0,-123.0,6.012
91.0,-105.0,6.013
88.0,-71.0,6.014
77.0,-19.0,6.015
59.0,21.0,6.016
34.0,28.0,6.017
8.0,7.0,6.018
-1.0,4.0,6.019
7.0,27.0,6.02
24.0,44.0,6.021
37.0,46.0,6.022
34.0,42.0,6.023
6.0,40.0,6.024
-28.0,36.0,6.025
-55.0,27.0,6.026
-66.0,16.0,6.027
-59.0,6.0,6.028
-36.0,0.0,6.029
-14.0,5.0,6.03
-9.0,16.0,6.031
-14.0,25.0,6.032
-17.0,20.0,6.033
-11.0,-1.0,6.034
-2.0,-27.0,6.035
17.0,-43.0,6.036
41.0,-39.0,6.037
48.0,-24.0,6.038
35.0,-19.0,6.039
32.0,-29.0,6.04
65.0,-34.0,6.041
109.0,-17.0,6.042
111.0,1.0,6.043
44.0,0.0,6.044
-60.0,-4.0,6.045
-141.0,9.0,6.046
-148.0,30.0,6.047
-89.0,31.0,6.048
-20.0,20.0,6.049
18.0,19.0,6.05
40.0,28.0,6.051
68.0,18.0,6.052
87.0,-10.0,6.053
70.0,-28.0,6.054
32.0,-24.0,6.055
7.0,-13.0,6.056
6.0,-10.0,6.057
11.0,-11.0,6.058
2.0,-9.0,6.059
-32.0,-4.0,6.06
-79.0,1.0,6.061
-100.0,11.0,6.062
-77.0,22.0,6.063
-44.0,26.0,6.064
-46.0,25.0,6.065
-50.0,23.0,6.066
3.0,7.0,6.067
84.0,-26.0,6.068
107.0,-59.0,6.069
65.0,-64.0,6.07
38.0,-44.0,6.071
56.0,-27.0,6.072
69.0,-28.0,6.073
60.0,-35.0,6.074
65.0,-34.0,6.075
86.0,-24.0,6.076
74.0,-4.0,6.077
9.0,24.0,6.078
-61.0,50.0,6.079
-100.0,58.0,6.08
-118.0,43.0,6.081
-119.0,16.0,6.082
-94.0,-30.0,6.083
-65.0,-91.0,6.084
-57.0,-140.0,6.085
-55.0,-147.0,6.086
-35.0,-120.0,6.087
-11.0,-81.0,6.088
-8.0,-24.0,6.089
-13.0,64.0,6.09
1.0,160.0,6.091
16.0,217.0,6.092
8.0,214.0,6.093
-1.0,177.0,6.094
17.0,139.0,6.095
44.0,106.0,6.096
54.0,79.0,6.097
48.0,55.0,6.098
45.0,42.0,6.099
35.0,32.0,6.1
12.0,3.0,6.101
0.0,-33.0,6.102
25.0,-53.0,6.103
58.0,-42.0,6.104
61.0,-25.0,6.105
40.0,-29.0,6.106
27.0,-38.0,6.107
22.0,-31.0,6.108
1.0,-18.0,6.109
-39.0,-21.0,6.11
-77.0,-36.0,6.111
-94.0,-38.0,6.112
-85.0,-32.0,6.113
-39.0,-34.0,6.114
45.0,-40.0,6.115
143.0,-35.0,6.116
197.0,-29.0,6.117
166.0,-36.0,6.118
59.0,-52.0,6.119
-61.0,-60.0,6.12
-142.0,-59.0,6.121
-171.0,-49.0,6.122
-141.0,-39.0,6.123
-46.0,-28.0,6.124
71.0,-18.0,6.125
126.0,-11.0,6.126
88.0,0.0,6.127
32.0,15.0,6.128
29.0,28.0,6.129
50.0,39.0,6.13
34.0,48.0,6.131
-1.0,46.0,6.132
-2.0,34.0,6.133
19.0,27.0,6.134
12.0,37.0,6.135
-20.0,48.0,6.136
-24.0,45.0,6.137
2.0,39.0,6.138
19.0,47.0,6.139
-6.0,47.0,6.14
-50.0,-5.0,6.141
-75.0,-88.0,6.142
-77.0,-145.0,6.143
-68.0,-145.0,6.144
-38.0,-108.0,6.145
29.0,-57.0,6.146
106.0,-8.0,6.147
131.0,19.0,6.148
71.0,16.0,6.149
-23.0,1.0,6.15
-64.0,3.0,6.151
-32.0,20.0,6.152
15.0,29.0,6.153
18.0,27.0,6.154
-11.0,29.0,6.155
-21.0,34.0,6.156
-4.0,42.0,6.157
19.0,51.0,6.158
21.0,70.0,6.159
7.0,85.0,6.16
-5.0,77.0,6.161
-7.0,55.0,6.162
-5.0,23.0,6.163
-11.0,-17.0,6.164
-33.0,-61.0,6.165
-55.0,-78.0,6.166
-53.0,-54.0,6.167
-30.0,-19.0,6.168
-14.0,-18.0,6.169
-7.0,-43.0,6.17
9.0,-52.0,6.171
36.0,-28.0,6.172
50.0,-8.0,6.173
34.0,-7.0,6.174
7.0,-6.0,6.175
-15.0,10.0,6.176
-28.0,18.0,6.177
-31.0,-1.0,6.178
-17.0,-18.0,6.179
0.0,-10.0,6.18
-3.0,4.0,6.181
-16.0,3.0,6.182
-11.0,-4.0,6.183
6.0,9.0,6.184
5.0,40.0,6.185
-12.0,51.0,6.186
-17.0,41.0,6.187
-5.0,33.0,6.188
4.0,39.0,6.189
6.0,38.0,6.19
19.0,16.0,6.191
38.0,-8.0,6.192
53.0,-14.0,6.193
66.0,-9.0,6.194
82.0,-9.0,6.195
77.0,-9.0,6.196
31.0,4.0,6.197
-46.0,18.0,6.198
-96.0,13.0,6.199
-85.0,-5.0,6.2
-28.0,-16.0,6.201
32.0,-12.0,6.202
67.0,-9.0,6.203
76.0,-6.0,6.204
76.0,7.0,6.205
66.0,22.0,6.206
33.0,22.0,6.207
-14.0,10.0,6.208
-28.0,5.0,6.209
12.0,5.0,6.21
67.0,-5.0,6.211
86.0,-24.0,6.212
69.0,-38.0,6.213
36.0,-55.0,6.214
-22.0,-83.0,6.215
-114.0,-106.0,6.216
-183.0,-107.0,6.217
-170.0,-105.0,6.218
-75.0,-140.0,6.219
29.0,-216.0,6.22
79.0,-284.0,6.221
66.0,-290.0,6.222
21.0,-244.0,6.223
-40.0,-189.0,6.224
-117.0,-132.0,6.225
-189.0,-34.0,6.226
-201.0,135.0,6.227
-119.0,349.0,6.228
-3.0,540.0,6.229
51.0,653.0,6.23
46.0,672.0,6.231
80.0,612.0,6.232
176.0,496.0,6.233
221.0,346.0,6.234
151.0,183.0,6.235
62.0,29.0,6.236
57.0,-84.0,6.237
92.0,-168.0,6.238
74.0,-218.0,6.239
3.0,-226.0,6.24
-47.0,-195.0,6.241
-59.0,-143.0,6.242
-60.0,-106.0,6.243
-34.0,-100.0,6.244
31.0,-110.0,6.245
67.0,-120.0,6.246
13.0,-122.0,6.247
-75.0,-117.0,6.248
-108.0,-103.0,6.249
-86.0,-87.0,6.25
-49.0,-84.0,6.251
7.0,-102.0,6.252
78.0,-124.0,6.253
89.0,-128.0,6.254
11.0,-121.0,6.255
-75.0,-110.0,6.256
-110.0,-95.0,6.257
-144.0,-63.0,6.258
-185.0,-27.0,6.259
-154.0,-7.0,6.26
-21.0,-3.0,6.261
94.0,12.0,6.262
108.0,43.0,6.263
86.0,60.0,6.264
102.0,48.0,6.265
110.0,30.0,6.266
59.0,32.0,6.267
-5.0,42.0,6.268
-20.0,35.0,6.269
4.0,12.0,6.27
33.0,0.0,6.271
52.0,12.0,6.272
38.0,34.0,6.273
4.0,46.0,6.274
30.0,44.0,6.275
159.0,36.0,6.276
281.0,28.0,6.277
266.0,12.0,6.278
125.0,-12.0,6.279
-12.0,-34.0,6.28
-89.0,-47.0,6.281
-160.0,-45.0,6.282
-223.0,-36.0,6.283
-198.0,-22.0,6.284
-86.0,-1.0,6.285
-14.0,23.0,6.286
-45.0,38.0,6.287
-83.0,43.0,6.288
-31.0,45.0,6.289
61.0,41.0,6.29
79.0,19.0,6.291
14.0,-22.0,6.292
-51.0,-62.0,6.293
-72.0,-76.0,6.294
-79.0,-69.0,6.295
-109.0,-53.0,6.296
-155.0,-27.0,6.297
-199.0,13.0,6.298
-200.0,54.0,6.299
-117.0,69.0,6.3
34.0,60.0,6.301
148.0,49.0,6.302
144.0,32.0,6.303
84.0,-5.0,6.304
101.0,-62.0,6.305
216.0,-136.0,6.306
292.0,-228.0,6.307
222.0,-305.0,6.308
73.0,-302.0,6.309
-21.0,-201.0,6.31
-33.0,-61.0,6.311
-25.0,75.0,6.312
-14.0,235.0,6.313
32.0,421.0,6.314
88.0,557.0,6.315
79.0,578.0,6.316
22.0,530.0,6.317
-7.0,466.0,6.318
8.0,377.0,6.319
0.0,228.0,6.32
-48.0,53.0,6.321
-71.0,-72.0,6.322
-39.0,-142.0,6.323
-8.0,-198.0,6.324
-20.0,-249.0,6.325
-52.0,-269.0,6.326
-85.0,-263.0,6.327
-116.0,-259.0,6.328
-121.0,-262.0,6.329
-68.0,-252.0,6.33
36.0,-232.0,6.331
133.0,-209.0,6.332
177.0,-164.0,6.333
146.0,-71.0,6.334
39.0,46.0,6.335
-105.0,120.0,6.336
-204.0,119.0,6.337
-211.0,67.0,6.338
-128.0,23.0,6.339
-21.0,17.0,6.34
45.0,34.0,6.341
52.0,57.0,6.342
38.0,74.0,6.343
46.0,81.0,6.344
65.0,84.0,6.345
44.0,80.0,6.346
-19.0,60.0,6.347
-69.0,17.0,6.348
-75.0,-27.0,6.349
-57.0,-51.0,6.35
-25.0,-51.0,6.351
37.0,-54.0,6.352
110.0,-72.0,6.353
138.0,-83.0,6.354
123.0,-63.0,6.355
124.0,-29.0,6.356
131.0,-14.0,6.357
64.0,-32.0,6.358
-62.0,-55.0,6.359
-123.0,-54.0,6.36
-79.0,-35.0,6.361
-58.0,-21.0,6.362
-128.0,-30.0,6.363
-150.0,-47.0,6.364
-26.0,-39.0,6.365
104.0,5.0,6.366
93.0,55.0,6.367
29.0,73.0,6.368
61.0,57.0,6.369
126.0,39.0,6.37
88.0,42.0,6.371
-5.0,49.0,6.372
-14.0,41.0,6.373
51.0,30.0,6.374
90.0,33.0,6.375
85.0,34.0,6.376
66.0,11.0,6.377
-11.0,-33.0,6.378
-161.0,-62.0,6.379
-266.0,-61.0,6.38
-212.0,-54.0,6.381
-69.0,-49.0,6.382
13.0,-39.0,6.383
9.0,-17.0,6.384
-10.0,7.0,6.385
0.0,29.0,6.386
41.0,40.0,6.387
90.0,35.0,6.388
111.0,15.0,6.389
61.0,-2.0,6.39
-15.0,6.0,6.391
-17.0,31.0,6.392
80.0,49.0,6.393
186.0,52.0,6.394
191.0,53.0,6.395
83.0,59.0,6.396
-55.0,58.0,6.397
-180.0,36.0,6.398
-264.0,-12.0,6.399
-289.0,-90.0,6.4
-229.0,-176.0,6.401
-85.0,-206.0,6.402
54.0,-137.0,6.403
96.0,-19.0,6.404
67.0,49.0,6.405
79.0,30.0,6.406
151.0,-9.0,6.407
150.0,-5.0,6.408
-14.0,25.0,6.409
-225.0,31.0,6.41
-276.0,16.0,6.411
-124.0,27.0,6.412
75.0,71.0,6.413
184.0,121.0,6.414
219.0,155.0,6.415
245.0,174.0,6.416
246.0,169.0,6.417
178.0,112.0,6.418
88.0,21.0,6.419
56.0,-56.0,6.42
81.0,-79.0,6.421
89.0,-49.0,6.422
41.0,-10.0,6.423
-36.0,2.0,6.424
-111.0,-10.0,6.425
-152.0,-28.0,6.426
-125.0,-39.0,6.427
-41.0,-46.0,6.428
38.0,-55.0,6.429
77.0,-72.0,6.43
78.0,-92.0,6.431
30.0,-102.0,6.432
-68.0,-86.0,6.433
-113.0,-59.0,6.434
-1.0,-55.0,6.435
173.0,-88.0,6.436
191.0,-120.0,6.437
-23.0,-124.0,6.438
-274.0,-105.0,6.439
-354.0,-91.0,6.44
-271.0,-77.0,6.441
-161.0,-17.0,6.442
-88.0,83.0,6.443
-48.0,171.0,6.444
-42.0,214.0,6.445
-49.0,235.0,6.446
-23.0,265.0,6.447
34.0,279.0,6.448
65.0,243.0,6.449
55.0,183.0,6.45
57.0,158.0,6.451
94.0,173.0,6.452
109.0,173.0,6.453
77.0,127.0,6.454
43.0,55.0,6.455
38.0,-14.0,6.456
44.0,-71.0,6.457
39.0,-130.0,6.458
37.0,-188.0,6.459
35.0,-253.0,6.46
13.0,-315.0,6.461
-29.0,-307.0,6.462
-55.0,-201.0,6.463
-61.0,-80.0,6.464
-76.0,-52.0,6.465
-82.0,-98.0,6.466
-25.0,-100.0,6.467
91.0,-35.0,6.468
186.0,8.0,6.469
207.0,-14.0,6.47
182.0,-32.0,6.471
158.0,-7.0,6.472
129.0,10.0,6.473
90.0,-11.0,6.474
62.0,-30.0,6.475
48.0,-17.0,6.476
26.0,-2.0,6.477
-19.0,-8.0,6.478
-45.0,-11.0,6.479
-45.0,-15.0,6.48
-76.0,-56.0,6.481
-161.0,-124.0,6.482
-237.0,-165.0,6.483
-234.0,-172.0,6.484
-172.0,-188.0,6.485
-112.0,-212.0,6.486
-63.0,-174.0,6.487
0.0,-42.0,6.488
78.0,124.0,6.489
147.0,252.0,6.49
179.0,317.0,6.491
154.0,330.0,6.492
69.0,310.0,6.493
-29.0,282.0,6.494
-87.0,255.0,6.495
-96.0,214.0,6.496
-90.0,166.0,6.497
-84.0,136.0,6.498
-73.0,152.0,6.499
-63.0,186.0,6.5
-52.0,184.0,6.501
-17.0,146.0,6.502
46.0,96.0,6.503
91.0,44.0,6.504
77.0,-18.0,6.505
39.0,-76.0,6.506
32.0,-114.0,6.507
46.0,-133.0,6.508
31.0,-141.0,6.509
-15.0,-133.0,6.51
-54.0,-121.0,6.511
-67.0,-132.0,6.512
-67.0,-169.0,6.513
-51.0,-208.0,6.514
-16.0,-251.0,6.515
19.0,-313.0,6.516
41.0,-354.0,6.517
60.0,-316.0,6.518
82.0,-203.0,6.519
87.0,-104.0,6.52
60.0,-52.0,6.521
28.0,23.0,6.522
17.0,151.0,6.523
7.0,254.0,6.524
-31.0,271.0,6.525
-66.0,243.0,6.526
-47.0,228.0,6.527
9.0,215.0,6.528
38.0,184.0,6.529
1.0,153.0,6.53
-81.0,125.0,6.531
-158.0,82.0,6.532
-148.0,18.0,6.533
23.0,-38.0,6.534
299.0,-82.0,6.535
470.0,-124.0,6.536
392.0,-149.0,6.537
106.0,-133.0,6.538
-172.0,-91.0,6.539
-299.0,-67.0,6.54
-262.0,-71.0,6.541
-100.0,-62.0,6.542
98.0,-36.0,6.543
175.0,-20.0,6.544
63.0,-27.0,6.545
-71.0,-47.0,6.546
-41.0,-76.0,6.547
63.0,-115.0,6.548
25.0,-145.0,6.549
-110.0,-151.0,6.55
-108.0,-130.0,6.551
43.0,-92.0,6.552
112.0,-38.0,6.553
28.0,41.0,6.554
-15.0,146.0,6.555
71.0,247.0,6.556
123.0,292.0,6.557
31.0,255.0,6.558
-80.0,182.0,6.559
-76.0,132.0,6.56
-5.0,99.0,6.561
46.0,58.0,6.562
100.0,30.0,6.563
154.0,38.0,6.564
99.0,22.0,6.565
-75.0,-58.0,6.566
-205.0,-126.0,6.567
-183.0,-103.0,6.568
-101.0,-69.0,6.569
-76.0,-126.0,6.57
-87.0,-202.0,6.571
-81.0,-163.0,6.572
-86.0,-52.0,6.573
-110.0,-3.0,6.574
-89.0,2.0,6.575
-8.0,67.0,6.576
58.0,159.0,6.577
64.0,174.0,6.578
47.0,120.0,6.579
34.0,89.0,6.58
2.0,73.0,6.581
-13.0,5.0,6.582
67.0,-75.0,6.583
204.0,-64.0,6.584
239.0,10.0,6.585
104.0,24.0,6.586
-71.0,-37.0,6.587
-127.0,-76.0,6.588
-71.0,-60.0,6.589
-11.0,-46.0,6.59
9.0,-58.0,6.591
47.0,-76.0,6.592
148.0,-103.0,6.593
255.0,-163.0,6.594
244.0,-224.0,6.595
73.0,-229.0,6.596
-124.0,-176.0,6.597
-197.0,-88.0,6.598
-106.0,14.0,6.599
16.0,113.0,6.6
51.0,178.0,6.601
-10.0,211.0,6.602
-126.0,232.0,6.603
-253.0,249.0,6.604
-294.0,244.0,6.605
-166.0,212.0,6.606
40.0,161.0,6.607
108.0,81.0,6.608
-71.0,-11.0,6.609
-362.0,-52.0,6.61
-518.0,-19.0,6.611
-375.0,11.0,6.612
25.0,-17.0,6.613
426.0,-38.0,6.614
557.0,26.0,6.615
413.0,111.0,6.616
246.0,103.0,6.617
211.0,1.0,6.618
224.0,-85.0,6.619
144.0,-109.0,6.62
33.0,-104.0,6.621
17.0,-83.0,6.622
60.0,-59.0,6.623
47.0,-74.0,6.624
1.0,-128.0,6.625
10.0,-140.0,6.626
41.0,-64.0,6.627
14.0,24.0,6.628
-41.0,39.0,6.629
-48.0,-3.0,6.63
-27.0,-59.0,6.631
-46.0,-137.0,6.632
-79.0,-221.0,6.633
-64.0,-232.0,6.634
-17.0,-156.0,6.635
4.0,-88.0,6.636
-6.0,-74.0,6.637
-30.0,-40.0,6.638
-62.0,79.0,6.639
-95.0,217.0,6.64
-88.0,274.0,6.641
-35.0,267.0,6.642
13.0,247.0,6.643
18.0,195.0,6.644
-2.0,97.0,6.645
-29.0,14.0,6.646
-72.0,-3.0,6.647
-108.0,-5.0,6.648
-98.0,-41.0,6.649
-70.0,-89.0,6.65
-82.0,-118.0,6.651
-94.0,-148.0,6.652
-6.0,-187.0,6.653
156.0,-199.0,6.654
236.0,-166.0,6.655
162.0,-120.0,6.656
45.0,-75.0,6.657
-28.0,3.0,6.658
-80.0,106.0,6.659
-152.0,182.0,6.66
-194.0,212.0,6.661
-130.0,237.0,6.662
42.0,260.0,6.663
243.0,245.0,6.664
337.0,195.0,6.665
238.0,148.0,6.666
34.0,107.0,6.667
-64.0,40.0,6.668
6.0,-26.0,6.669
72.0,-38.0,6.67
20.0,-11.0,6.671
-29.0,-3.0,6.672
38.0,-21.0,6.673
109.0,-21.0,6.674
55.0,-14.0,6.675
-43.0,-55.0,6.676
-61.0,-130.0,6.677
-42.0,-165.0,6.678
-74.0,-122.0,6.679
-120.0,-82.0,6.68
-103.0,-155.0,6.681
-54.0,-322.0,6.682
-44.0,-456.0,6.683
-52.0,-459.0,6.684
-35.0,-334.0,6.685
-16.0,-163.0,6.686
-19.0,-27.0,6.687
-13.0,46.0,6.688
11.0,85.0,6.689
23.0,126.0,6.69
23.0,177.0,6.691
47.0,223.0,6.692
74.0,256.0,6.693
41.0,279.0,6.694
-53.0,284.0,6.695
-131.0,259.0,6.696
-138.0,222.0,6.697
-77.0,189.0,6.698
33.0,168.0,6.699
139.0,136.0,6.7
165.0,89.0,6.701
88.0,58.0,6.702
0.0,50.0,6.703
-10.0,35.0,6.704
29.0,-17.0,6.705
36.0,-83.0,6.706
8.0,-122.0,6.707
-11.0,-126.0,6.708
-19.0,-120.0,6.709
-31.0,-120.0,6.71
-14.0,-120.0,6.711
82.0,-118.0,6.712
218.0,-115.0,6.713
282.0,-110.0,6.714
200.0,-94.0,6.715
10.0,-70.0,6.716
-178.0,-48.0,6.717
-303.0,-41.0,6.718
-317.0,-45.0,6.719
-232.0,-46.0,6.72
-106.0,-40.0,6.721
-11.0,-24.0,6.722
19.0,-9.0,6.723
11.0,4.0,6.724
1.0,16.0,6.725
-1.0,24.0,6.726
10.0,27.0,6.727
60.0,36.0,6.728
133.0,66.0,6.729
148.0,110.0,6.73
65.0,141.0,6.731
-37.0,127.0,6.732
-65.0,57.0,6.733
-37.0,-55.0,6.734
-29.0,-170.0,6.735
-37.0,-247.0,6.736
-13.0,-264.0,6.737
32.0,-234.0,6.738
40.0,-162.0,6.739
11.0,-57.0,6.74
4.0,51.0,6.741
16.0,119.0,6.742
-3.0,120.0,6.743
-43.0,80.0,6.744
-43.0,51.0,6.745
28.0,65.0,6.746
130.0,126.0,6.747
199.0,220.0,6.748
182.0,317.0,6.749
71.0,370.0,6.75
-73.0,348.0,6.751
-142.0,269.0,6.752
-104.0,171.0,6.753
-43.0,80.0,6.754
-49.0,4.0,6.755
-105.0,-45.0,6.756
-126.0,-70.0,6.757
-61.0,-111.0,6.758
76.0,-185.0,6.759
227.0,-268.0,6.76
313.0,-322.0,6.761
282.0,-325.0,6.762
166.0,-302.0,6.763
36.0,-271.0,6.764
-79.0,-235.0,6.765
-197.0,-194.0,6.766
-309.0,-158.0,6.767
-364.0,-122.0,6.768
-316.0,-89.0,6.769
-150.0,-81.0,6.77
90.0,-95.0,6.771
271.0,-86.0,6.772
262.0,-8.0,6.773
110.0,105.0,6.774
12.0,190.0,6.775
32.0,240.0,6.776
41.0,303.0,6.777
-46.0,398.0,6.778
-116.0,477.0,6.779
-64.0,497.0,6.78
21.0,456.0,6.781
5.0,377.0,6.782
-91.0,262.0,6.783
-169.0,123.0,6.784
-198.0,0.0,6.785
-158.0,-73.0,6.786
1.0,-100.0,6.787
229.0,-113.0,6.788
340.0,-133.0,6.789
239.0,-151.0,6.79
71.0,-147.0,6.791
20.0,-132.0,6.792
75.0,-141.0,6.793
100.0,-182.0,6.794
58.0,-207.0,6.795
22.0,-206.0,6.796
23.0,-228.0,6.797
11.0,-306.0,6.798
-34.0,-358.0,6.799
-61.0,-285.0,6.8
-38.0,-124.0,6.801
-6.0,3.0,6.802
-7.0,49.0,6.803
-19.0,74.0,6.804
-16.0,117.0,6.805
-17.0,149.0,6.806
-34.0,153.0,6.807
-47.0,163.0,6.808
-34.0,194.0,6.809
-19.0,202.0,6.81
-30.0,155.0,6.811
-59.0,83.0,6.812
-55.0,16.0,6.813
3.0,-50.0,6.814
94.0,-119.0,6.815
145.0,-154.0,6.816
111.0,-132.0,6.817
-5.0,-90.0,6.818
-118.0,-73.0,6.819
-139.0,-78.0,6.82
-50.0,-75.0,6.821
84.0,-55.0,6.822
162.0,-48.0,6.823
124.0,-58.0,6.824
3.0,-72.0,6.825
-117.0,-94.0,6.826
-184.0,-129.0,6.827
-198.0,-148.0,6.828
-156.0,-118.0,6.829
-59.0,-52.0,6.83
40.0,3.0,6.831
59.0,23.0,6.832
13.0,24.0,6.833
-2.0,34.0,6.834
40.0,70.0,6.835
63.0,143.0,6.836
28.0,219.0,6.837
-18.0,259.0,6.838
-20.0,249.0,6.839
0.0,233.0,6.84
10.0,254.0,6.841
33.0,297.0,6.842
81.0,306.0,6.843
115.0,261.0,6.844
108.0,196.0,6.845
88.0,126.0,6.846
83.0,28.0,6.847
93.0,-93.0,6.848
96.0,-179.0,6.849
63.0,-184.0,6.85
-18.0,-143.0,6.851
-110.0,-130.0,6.852
-140.0,-152.0,6.853
-89.0,-155.0,6.854
-29.0,-125.0,6.855
-17.0,-100.0,6.856
-32.0,-105.0,6.857
-37.0,-118.0,6.858
-31.0,-112.0,6.859
-40.0,-106.0,6.86
-49.0,-119.0,6.861
-37.0,-125.0,6.862
-14.0,-101.0,6.863
8.0,-56.0,6.864
25.0,-7.0,6.865
39.0,35.0,6.866
42.0,49.0,6.867
41.0,22.0,6.868
42.0,-16.0,6.869
39.0,-15.0,6.87
21.0,37.0,6.871
4.0,95.0,6.872
12.0,122.0,6.873
46.0,115.0,6.874
84.0,84.0,6.875
103.0,29.0,6.876
85.0,-33.0,6.877
7.0,-83.0,6.878
-98.0,-94.0,6.879
-176.0,-66.0,6.88
-170.0,-36.0,6.881
-144.0,-21.0,6.882
-61.0,-10.0,6.883
3.0,17.0,6.884
8.0,67.0,6.885
18.0,130.0,6.886
43.0,202.0,6.887
62.0,264.0,6.888
64.0,273.0,6.889
68.0,197.0,6.89
73.0,59.0,6.891
69.0,-70.0,6.892
34.0,-143.0,6.893
0.0,-170.0,6.894
-29.0,-177.0,6.895
-45.0,-172.0,6.896
-17.0,-150.0,6.897
25.0,-139.0,6.898
123.0,-152.0,6.899
189.0,-161.0,6.9
148.0,-152.0,6.901
39.0,-116.0,6.902
-32.0,0.0,6.903
-38.0,104.0,6.904
-50.0,172.0,6.905
-93.0,214.0,6.906
-117.0,176.0,6.907
-101.0,130.0,6.908
-79.0,57.0,6.909
-60.0,-3.0,6.91
-21.0,-26.0,6.911
17.0,-34.0,6.912
5.0,3.0,6.913
-32.0,35.0,6.914
-32.0,47.0,6.915
4.0,50.0,6.916
23.0,20.0,6.917
11.0,-27.0,6.918
16.0,-129.0,6.919
45.0,-190.0,6.92
58.0,-195.0,6.921
44.0,-172.0,6.922
44.0,-117.0,6.923
65.0,6.0,6.924
64.0,171.0,6.925
21.0,277.0,6.926
-25.0,272.0,6.927
-39.0,214.0,6.928
-37.0,149.0,6.929
-50.0,44.0,6.93
-65.0,-132.0,6.931
-59.0,-321.0,6.932
-30.0,-427.0,6.933
-3.0,-422.0,6.934
12.0,-349.0,6.935
30.0,-242.0,6.936
57.0,-115.0,6.937
61.0,31.0,6.938
25.0,167.0,6.939
-22.0,256.0,6.94
-34.0,299.0,6.941
-15.0,329.0,6.942
-7.0,357.0,6.943
-29.0,350.0,6.944
-64.0,270.0,6.945
-83.0,135.0,6.946
-66.0,14.0,6.947
-11.0,-51.0,6.948
36.0,-71.0,6.949
34.0,-76.0,6.95
9.0,-83.0,6.951
37.0,-100.0,6.952
133.0,-121.0,6.953
233.0,-120.0,6.954
268.0,-82.0,6.955
225.0,-32.0,6.956
126.0,-4.0,6.957
-23.0,12.0,6.958
-147.0,63.0,6.959
-220.0,143.0,6.96
-142.0,185.0,6.961
-81.0,158.0,6.962
-69.0,103.0,6.963
-51.0,68.0,6.964
-20.0,52.0,6.965
2.0,35.0,6.966
-2.0,19.0,6.967
-4.0,15.0,6.968
4.0,11.0,6.969
11.0,-8.0,6.97
9.0,-37.0,6.971
10.0,-64.0,6.972
19.0,-92.0,6.973
27.0,-129.0,6.974
26.0,-163.0,6.975
24.0,-189.0,6.976
22.0,-216.0,6.977
24.0,-247.0,6.978
28.0,-256.0,6.979
19.0,-250.0,6.98
14.0,-196.0,6.981
18.0,-152.0,6.982
19.0,-138.0,6.983
17.0,-102.0,6.984
15.0,2.0,6.985
13.0,90.0,6.986
7.0,131.0,6.987
5.0,161.0,6.988
14.0,153.0,6.989
16.0,146.0,6.99
-5.0,144.0,6.991
-31.0,135.0,6.992
-43.0,105.0,6.993
-38.0,72.0,6.994
-31.0,32.0,6.995
-27.0,-1.0,6.996
-24.0,-9.0,6.997
-26.0,-8.0,6.998
-35.0,7.0,6.999
-47.0,-13.0,7.0
-48.0,-56.0,7.001
-33.0,-73.0,7.002
-5.0,-44.0,7.003
20.0,10.0,7.004
20.0,52.0,7.005
-7.0,68.0,7.006
-36.0,80.0,7.007
-46.0,103.0,7.008
-33.0,119.0,7.009
-5.0,99.0,7.01
25.0,57.0,7.011
47.0,33.0,7.012
43.0,40.0,7.013
11.0,38.0,7.014
-17.0,-4.0,7.015
-5.0,-66.0,7.016
48.0,-102.0,7.017
114.0,-95.0,7.018
154.0,-59.0,7.019
150.0,-18.0,7.02
118.0,15.0,7.021
79.0,55.0,7.022
51.0,96.0,7.023
36.0,118.0,7.024
26.0,107.0,7.025
16.0,77.0,7.026
16.0,48.0,7.027
28.0,12.0,7.028
29.0,-51.0,7.029
-7.0,-119.0,7.03
-65.0,-137.0,7.031
-104.0,-87.0,7.032
-107.0,-23.0,7.033
-93.0,-2.0,7.034
-79.0,-21.0,7.035
-63.0,-51.0,7.036
-41.0,-93.0,7.037
-22.0,-188.0,7.038
-7.0,-324.0,7.039
9.0,-431.0,7.04
19.0,-422.0,7.041
4.0,-249.0,7.042
-26.0,36.0,7.043
-43.0,307.0,7.044
-33.0,457.0,7.045
-11.0,471.0,7.046
10.0,409.0,7.047
25.0,305.0,7.048
36.0,162.0,7.049
38.0,8.0,7.05
32.0,-90.0,7.051
15.0,-105.0,7.052
-9.0,-89.0,7.053
-30.0,-97.0,7.054
-27.0,-111.0,7.055
-4.0,-81.0,7.056
16.0,-3.0,7.057
18.0,91.0,7.058
9.0,156.0,7.059
-1.0,185.0,7.06
-19.0,174.0,7.061
-37.0,123.0,7.062
-32.0,36.0,7.063
-12.0,-47.0,7.064
-4.0,-81.0,7.065
-19.0,-67.0,7.066
-28.0,-50.0,7.067
-18.0,-51.0,7.068
0.0,-52.0,7.069
20.0,-47.0,7.07
48.0,-54.0,7.071
74.0,-77.0,7.072
67.0,-94.0,7.073
32.0,-84.0,7.074
8.0,-67.0,7.075
19.0,-60.0,7.076
41.0,-61.0,7.077
52.0,-66.0,7.078
49.0,-77.0,7.079
40.0,-87.0,7.08
18.0,-79.0,7.081
-18.0,-45.0,7.082
-47.0,-19.0,7.083
-41.0,-36.0,7.084
-9.0,-95.0,7.085
4.0,-150.0,7.086
-18.0,-156.0,7.087
-40.0,-96.0,7.088
-21.0,-2.0,7.089
23.0,76.0,7.09
49.0,128.0,7.091
48.0,173.0,7.092
43.0,198.0,7.093
45.0,151.0,7.094
44.0,30.0,7.095
36.0,-93.0,7.096
40.0,-130.0,7.097
47.0,-87.0,7.098
19.0,-21.0,7.099
-64.0,26.0,7.1
-161.0,68.0,7.101
-196.0,120.0,7.102
-139.0,160.0,7.103
-39.0,164.0,7.104
34.0,158.0,7.105
55.0,183.0,7.106
42.0,229.0,7.107
18.0,252.0,7.108
-9.0,235.0,7.109
-31.0,202.0,7.11
-32.0,157.0,7.111
-4.0,83.0,7.112
35.0,-6.0,7.113
49.0,-70.0,7.114
23.0,-102.0,7.115
-22.0,-136.0,7.116
-50.0,-172.0,7.117
-46.0,-197.0,7.118
-16.0,-191.0,7.119
14.0,-169.0,7.12
33.0,-153.0,7.121
45.0,-151.0,7.122
